3.991909e+002,1.244559e+000
4.011203e+002,1.249081e+000
4.030497e+002,1.254678e+000
4.049791e+002,1.257276e+000
4.069085e+002,1.255167e+000
4.088379e+002,1.248475e+000
4.107673e+002,1.240419e+000
4.126967e+002,1.234092e+000
4.146261e+002,1.229753e+000
4.165555e+002,1.228217e+000
4.184848e+002,1.232969e+000
4.204142e+002,1.241083e+000
4.223436e+002,1.243463e+000
4.242730e+002,1.240029e+000
4.262024e+002,1.234905e+000
4.281318e+002,1.230983e+000
4.300612e+002,1.228700e+000
4.319905e+002,1.227038e+000
4.339199e+002,1.224542e+000
4.358493e+002,1.221225e+000
4.377787e+002,1.218752e+000
4.397081e+002,1.218482e+000
4.416375e+002,1.221029e+000
4.435669e+002,1.224623e+000
4.454963e+002,1.225520e+000
4.474257e+002,1.224108e+000
4.493550e+002,1.223897e+000
4.512844e+002,1.225568e+000
4.532138e+002,1.227318e+000
4.551432e+002,1.228042e+000
4.570726e+002,1.226993e+000
4.590020e+002,1.224339e+000
4.609314e+002,1.223373e+000
4.628607e+002,1.226528e+000
4.647902e+002,1.232236e+000
4.667195e+002,1.237307e+000
4.686489e+002,1.240167e+000
4.705783e+002,1.240896e+000
4.725077e+002,1.240246e+000
4.744371e+002,1.239735e+000
4.763665e+002,1.240275e+000
4.782959e+002,1.241693e+000
4.802253e+002,1.243965e+000
4.821546e+002,1.246814e+000
4.840840e+002,1.248737e+000
4.860134e+002,1.248412e+000
4.879428e+002,1.246984e+000
4.898722e+002,1.246590e+000
4.918016e+002,1.248039e+000
4.937310e+002,1.250759e+000
4.956604e+002,1.254052e+000
4.975898e+002,1.257557e+000
4.995191e+002,1.260867e+000
5.014485e+002,1.263717e+000
5.033779e+002,1.266444e+000
5.053073e+002,1.270205e+000
5.072367e+002,1.275648e+000
5.091661e+002,1.281065e+000
5.110955e+002,1.284747e+000
5.130248e+002,1.287929e+000
5.149542e+002,1.292494e+000
5.168836e+002,1.298063e+000
5.188130e+002,1.303121e+000
5.207424e+002,1.307391e+000
5.226718e+002,1.311650e+000
5.246012e+002,1.316455e+000
5.265306e+002,1.321401e+000
5.284600e+002,1.325221e+000
5.303893e+002,1.327682e+000
5.323187e+002,1.330268e+000
5.342481e+002,1.334209e+000
5.361775e+002,1.339129e+000
5.381069e+002,1.344691e+000
5.400363e+002,1.351674e+000
5.419657e+002,1.360426e+000
5.438951e+002,1.370379e+000
5.458245e+002,1.381084e+000
5.477538e+002,1.392902e+000
5.496832e+002,1.407368e+000
5.516126e+002,1.425757e+000
5.535420e+002,1.447539e+000
5.554714e+002,1.471917e+000
5.574008e+002,1.498269e+000
5.593301e+002,1.522682e+000
5.612596e+002,1.538597e+000
5.631890e+002,1.543767e+000
5.651183e+002,1.540835e+000
5.670477e+002,1.531794e+000
5.689771e+002,1.518612e+000
5.709065e+002,1.505347e+000
5.728359e+002,1.495025e+000
5.747653e+002,1.487238e+000
5.766946e+002,1.479717e+000
5.786240e+002,1.470895e+000
5.805534e+002,1.460539e+000
5.824828e+002,1.448895e+000
5.844122e+002,1.437373e+000
5.863416e+002,1.428969e+000
5.882710e+002,1.426109e+000
5.902004e+002,1.429222e+000
5.921298e+002,1.437459e+000
5.940591e+002,1.449607e+000
5.959885e+002,1.464951e+000
5.979179e+002,1.482631e+000
5.998473e+002,1.499191e+000
6.017767e+002,1.508414e+000
6.037061e+002,1.506159e+000
6.056355e+002,1.494551e+000
6.075649e+002,1.479009e+000
6.094943e+002,1.462956e+000
6.114236e+002,1.447127e+000
6.133530e+002,1.431700e+000
6.152824e+002,1.416726e+000
6.172118e+002,1.401801e+000
6.191412e+002,1.387369e+000
6.210706e+002,1.375054e+000
6.230000e+002,1.365407e+000
6.249294e+002,1.357162e+000
6.268588e+002,1.349035e+000
6.287881e+002,1.341130e+000
6.307175e+002,1.333501e+000
6.326469e+002,1.325399e+000
6.345763e+002,1.317113e+000
6.365057e+002,1.310115e+000
6.384351e+002,1.305027e+000
6.403644e+002,1.301339e+000
6.422939e+002,1.298602e+000
6.442233e+002,1.296747e+000
6.461526e+002,1.295597e+000
6.480820e+002,1.294361e+000
6.500114e+002,1.292128e+000
6.519408e+002,1.289288e+000
6.538702e+002,1.287230e+000
6.557996e+002,1.286512e+000
6.577289e+002,1.286180e+000
6.596583e+002,1.284954e+000
6.615878e+002,1.282813e+000
6.635172e+002,1.280787e+000
6.654465e+002,1.279900e+000
6.673759e+002,1.281417e+000
6.693053e+002,1.284480e+000
6.712347e+002,1.284628e+000
6.731641e+002,1.283035e+000
6.750934e+002,1.282049e+000
6.770228e+002,1.282085e+000
6.789522e+002,1.282323e+000
6.808816e+002,1.281926e+000
6.828110e+002,1.280861e+000
6.847404e+002,1.279397e+000
6.866698e+002,1.277852e+000
6.885992e+002,1.276479e+000
6.905286e+002,1.275168e+000
6.924579e+002,1.273774e+000
6.943873e+002,1.272415e+000
6.963167e+002,1.271358e+000
6.982461e+002,1.270646e+000
7.001755e+002,1.269728e+000
7.021049e+002,1.268127e+000
7.040343e+002,1.266204e+000
7.059637e+002,1.264449e+000
7.078931e+002,1.262897e+000
7.098224e+002,1.261587e+000
7.117518e+002,1.260585e+000
7.136812e+002,1.259845e+000
7.156106e+002,1.259636e+000
7.175400e+002,1.260326e+000
7.194694e+002,1.261275e+000
7.213987e+002,1.260851e+000
7.233282e+002,1.258885e+000
7.252576e+002,1.257073e+000
7.271870e+002,1.256357e+000
7.291163e+002,1.256210e+000
7.310457e+002,1.255950e+000
7.329751e+002,1.255407e+000
7.349045e+002,1.254673e+000
7.368339e+002,1.253883e+000
7.387632e+002,1.253054e+000
7.406926e+002,1.252324e+000
7.426221e+002,1.252120e+000
7.445515e+002,1.252464e+000
7.464808e+002,1.252673e+000
7.484102e+002,1.252452e+000
7.503396e+002,1.252211e+000
7.522690e+002,1.251925e+000
7.541984e+002,1.251081e+000
7.561277e+002,1.249802e+000
7.580571e+002,1.248710e+000
7.599865e+002,1.247975e+000
7.619159e+002,1.247459e+000
7.638453e+002,1.247196e+000
7.657747e+002,1.247187e+000
7.677041e+002,1.247189e+000
7.696335e+002,1.246977e+000
7.715629e+002,1.246687e+000
7.734922e+002,1.246672e+000
7.754216e+002,1.246975e+000
7.773510e+002,1.247213e+000
7.792804e+002,1.247097e+000
7.812098e+002,1.246748e+000
7.831392e+002,1.246347e+000
7.850686e+002,1.245999e+000
7.869980e+002,1.245855e+000
7.889274e+002,1.245867e+000
7.908568e+002,1.245824e+000
7.927861e+002,1.245685e+000
7.947155e+002,1.245578e+000
7.966449e+002,1.245607e+000
7.985743e+002,1.245829e+000
8.005037e+002,1.246218e+000
8.024331e+002,1.246622e+000
8.043625e+002,1.246844e+000
8.062919e+002,1.246701e+000
8.082213e+002,1.246208e+000
8.101506e+002,1.245887e+000
8.120800e+002,1.246256e+000
8.140094e+002,1.247073e+000
8.159388e+002,1.247772e+000
8.178682e+002,1.248219e+000
8.197975e+002,1.248666e+000
8.217269e+002,1.249374e+000
8.236564e+002,1.250243e+000
8.255858e+002,1.250958e+000
8.275151e+002,1.251532e+000
8.294445e+002,1.252177e+000
8.313739e+002,1.252947e+000
8.333033e+002,1.253904e+000
8.352327e+002,1.255044e+000
8.371620e+002,1.256178e+000
8.390914e+002,1.257248e+000
8.410208e+002,1.258371e+000
8.429503e+002,1.259711e+000
8.448796e+002,1.261390e+000
8.468090e+002,1.263285e+000
8.487384e+002,1.265167e+000
8.506678e+002,1.266976e+000
8.525972e+002,1.268756e+000
8.545266e+002,1.270524e+000
8.564559e+002,1.272324e+000
8.583853e+002,1.274305e+000
8.603147e+002,1.276669e+000
8.622441e+002,1.279548e+000
8.641735e+002,1.282960e+000
8.661029e+002,1.286877e+000
8.680323e+002,1.291259e+000
8.699617e+002,1.295699e+000
8.718911e+002,1.299184e+000
8.738204e+002,1.301082e+000
8.757498e+002,1.301989e+000
8.776792e+002,1.302260e+000
8.796086e+002,1.300662e+000
8.815380e+002,1.296370e+000
8.834674e+002,1.290876e+000
8.853968e+002,1.286389e+000
8.873262e+002,1.283748e+000
8.892556e+002,1.282587e+000
8.911849e+002,1.282518e+000
8.931143e+002,1.283371e+000
8.950437e+002,1.284625e+000
8.969731e+002,1.285694e+000
8.989025e+002,1.286640e+000
9.008318e+002,1.287788e+000
9.027612e+002,1.289099e+000
9.046907e+002,1.290344e+000
9.066201e+002,1.291393e+000
9.085494e+002,1.292233e+000
9.104788e+002,1.292984e+000
9.124082e+002,1.293813e+000
9.143376e+002,1.294747e+000
9.162670e+002,1.295707e+000
9.181964e+002,1.296644e+000
9.201257e+002,1.297525e+000
9.220551e+002,1.298396e+000
9.239846e+002,1.299421e+000
9.259139e+002,1.300783e+000
9.278433e+002,1.302624e+000
9.297727e+002,1.305023e+000
9.317021e+002,1.308015e+000
9.336315e+002,1.311636e+000
9.355609e+002,1.315912e+000
9.374902e+002,1.320802e+000
9.394196e+002,1.326287e+000
9.413490e+002,1.332485e+000
9.432784e+002,1.339402e+000
9.452078e+002,1.346711e+000
9.471372e+002,1.354346e+000
9.490666e+002,1.362886e+000
9.509960e+002,1.372589e+000
9.529254e+002,1.382625e+000
9.548547e+002,1.391919e+000
9.567841e+002,1.399912e+000
9.587135e+002,1.405991e+000
9.606429e+002,1.409209e+000
9.625723e+002,1.409012e+000
9.645017e+002,1.405869e+000
9.664311e+002,1.401395e+000
9.683605e+002,1.397585e+000
9.702899e+002,1.395632e+000
9.722192e+002,1.395947e+000
9.741486e+002,1.398776e+000
9.760780e+002,1.404090e+000
9.780074e+002,1.411471e+000
9.799368e+002,1.420636e+000
9.818661e+002,1.431597e+000
9.837955e+002,1.444170e+000
9.857250e+002,1.457860e+000
9.876544e+002,1.472344e+000
9.895837e+002,1.487587e+000
9.915131e+002,1.503559e+000
9.934425e+002,1.520148e+000
9.953719e+002,1.537115e+000
9.973013e+002,1.554311e+000
9.992307e+002,1.571826e+000
1.001160e+003,1.589592e+000
1.003089e+003,1.607325e+000
1.005019e+003,1.624837e+000
1.006948e+003,1.642057e+000
1.008878e+003,1.659142e+000
1.010807e+003,1.676168e+000
1.012736e+003,1.692486e+000
1.014666e+003,1.707276e+000
1.016595e+003,1.719939e+000
1.018525e+003,1.729883e+000
1.020454e+003,1.737098e+000
1.022383e+003,1.742199e+000
1.024313e+003,1.745865e+000
1.026242e+003,1.748689e+000
1.028172e+003,1.750604e+000
1.030101e+003,1.751309e+000
1.032030e+003,1.751511e+000
1.033960e+003,1.752306e+000
1.035889e+003,1.753820e+000
1.037818e+003,1.755273e+000
1.039748e+003,1.755757e+000
1.041677e+003,1.754786e+000
1.043607e+003,1.752602e+000
1.045536e+003,1.750203e+000
1.047465e+003,1.748374e+000
1.049395e+003,1.746901e+000
1.051324e+003,1.745170e+000
1.053254e+003,1.742751e+000
1.055183e+003,1.739631e+000
1.057112e+003,1.736322e+000
1.059042e+003,1.733315e+000
1.060971e+003,1.730720e+000
1.062901e+003,1.728582e+000
1.064830e+003,1.726614e+000
1.066759e+003,1.724108e+000
1.068689e+003,1.721145e+000
1.070618e+003,1.718809e+000
1.072547e+003,1.717510e+000
1.074477e+003,1.716586e+000
1.076406e+003,1.715450e+000
1.078336e+003,1.713731e+000
1.080265e+003,1.711041e+000
1.082194e+003,1.707570e+000
1.084124e+003,1.704325e+000
1.086053e+003,1.702208e+000
1.087983e+003,1.701014e+000
1.089912e+003,1.699863e+000
1.091841e+003,1.698569e+000
1.093771e+003,1.697960e+000
1.095700e+003,1.698572e+000
1.097630e+003,1.699527e+000
1.099559e+003,1.699540e+000
1.101488e+003,1.698574e+000
1.103418e+003,1.697093e+000
1.105347e+003,1.694925e+000
1.107276e+003,1.692040e+000
1.109206e+003,1.688524e+000
1.111135e+003,1.683883e+000
1.113065e+003,1.677839e+000
1.114994e+003,1.670873e+000
1.116923e+003,1.663480e+000
1.118853e+003,1.655586e+000
1.120782e+003,1.646702e+000
1.122712e+003,1.636519e+000
1.124641e+003,1.625190e+000
1.126570e+003,1.612786e+000
1.128500e+003,1.599060e+000
1.130429e+003,1.584168e+000
1.132358e+003,1.569054e+000
1.134288e+003,1.554577e+000
1.136217e+003,1.540713e+000
1.138147e+003,1.527128e+000
1.140076e+003,1.513852e+000
1.142005e+003,1.501032e+000
1.143935e+003,1.488622e+000
1.145864e+003,1.476499e+000
1.147794e+003,1.464645e+000
1.149723e+003,1.453148e+000
1.151652e+003,1.442119e+000
1.153582e+003,1.431731e+000
1.155511e+003,1.422260e+000
1.157441e+003,1.413762e+000
1.159370e+003,1.405890e+000
1.161299e+003,1.398258e+000
1.163229e+003,1.390863e+000
1.165158e+003,1.384063e+000
1.167087e+003,1.378139e+000
1.169017e+003,1.372889e+000
1.170946e+003,1.367904e+000
1.172876e+003,1.363148e+000
1.174805e+003,1.358760e+000
1.176734e+003,1.354631e+000
1.178664e+003,1.350705e+000
1.180593e+003,1.347120e+000
1.182523e+003,1.343924e+000
1.184452e+003,1.341092e+000
1.186381e+003,1.338570e+000
1.188311e+003,1.336174e+000
1.190240e+003,1.333699e+000
1.192169e+003,1.331154e+000
1.194099e+003,1.328756e+000
1.196028e+003,1.326581e+000
1.197958e+003,1.324300e+000
1.199887e+003,1.321651e+000
1.201816e+003,1.318866e+000
1.203746e+003,1.316234e+000
1.205675e+003,1.313741e+000
1.207605e+003,1.311326e+000
1.209534e+003,1.309047e+000
1.211463e+003,1.306977e+000
1.213393e+003,1.305129e+000
1.215322e+003,1.303474e+000
1.217252e+003,1.301901e+000
1.219181e+003,1.300197e+000
1.221110e+003,1.298339e+000
1.223040e+003,1.296638e+000
1.224969e+003,1.295265e+000
1.226898e+003,1.294009e+000
1.228828e+003,1.292705e+000
1.230757e+003,1.291451e+000
1.232687e+003,1.290338e+000
1.234616e+003,1.289314e+000
1.236545e+003,1.288318e+000
1.238475e+003,1.287321e+000
1.240404e+003,1.286257e+000
1.242334e+003,1.285050e+000
1.244263e+003,1.283756e+000
1.246192e+003,1.282475e+000
1.248122e+003,1.281186e+000
1.250051e+003,1.279781e+000
1.251980e+003,1.278207e+000
1.253910e+003,1.276586e+000
1.255839e+003,1.275176e+000
1.257769e+003,1.274125e+000
1.259698e+003,1.273321e+000
1.261627e+003,1.272494e+000
1.263557e+003,1.271519e+000
1.265486e+003,1.270496e+000
1.267416e+003,1.269585e+000
1.269345e+003,1.268952e+000
1.271274e+003,1.268586e+000
1.273204e+003,1.268141e+000
1.275133e+003,1.267389e+000
1.277063e+003,1.266541e+000
1.278992e+003,1.265858e+000
1.280921e+003,1.265301e+000
1.282851e+003,1.264713e+000
1.284780e+003,1.264179e+000
1.286709e+003,1.263928e+000
1.288639e+003,1.263883e+000
1.290568e+003,1.263693e+000
1.292498e+003,1.263281e+000
1.294427e+003,1.262877e+000
1.296356e+003,1.262593e+000
1.298286e+003,1.262294e+000
1.300215e+003,1.261816e+000
1.302145e+003,1.261132e+000
1.304074e+003,1.260369e+000
1.306003e+003,1.259719e+000
1.307933e+003,1.259187e+000
1.309862e+003,1.258642e+000
1.311792e+003,1.258190e+000
1.313721e+003,1.257877e+000
1.315650e+003,1.257494e+000
1.317580e+003,1.257163e+000
1.319509e+003,1.256981e+000
1.321438e+003,1.256454e+000
1.323368e+003,1.255332e+000
1.325297e+003,1.253994e+000
1.327227e+003,1.252774e+000
1.329156e+003,1.251673e+000
1.331085e+003,1.250516e+000
1.333015e+003,1.249162e+000
1.334944e+003,1.247782e+000
1.336874e+003,1.247175e+000
1.338803e+003,1.247996e+000
1.340732e+003,1.248871e+000
1.342662e+003,1.248019e+000
1.344591e+003,1.246272e+000
1.346521e+003,1.245119e+000
1.348450e+003,1.244822e+000
1.350379e+003,1.244776e+000
1.352309e+003,1.244576e+000
1.354238e+003,1.244360e+000
1.356167e+003,1.244058e+000
1.358097e+003,1.243407e+000
1.360026e+003,1.243238e+000
1.361956e+003,1.244840e+000
1.363885e+003,1.246988e+000
1.365814e+003,1.247615e+000
1.367744e+003,1.247627e+000
1.369673e+003,1.248091e+000
1.371603e+003,1.249172e+000
1.373532e+003,1.251772e+000
1.375461e+003,1.255515e+000
1.377391e+003,1.258187e+000
1.379320e+003,1.259876e+000
1.381250e+003,1.261744e+000
1.383179e+003,1.263761e+000
1.385108e+003,1.266257e+000
1.387038e+003,1.269965e+000
1.388967e+003,1.273333e+000
1.390896e+003,1.274787e+000
1.392826e+003,1.276370e+000
1.394755e+003,1.280668e+000
1.396685e+003,1.287272e+000
1.398614e+003,1.293676e+000
1.400543e+003,1.298271e+000
1.402473e+003,1.301500e+000
1.404402e+003,1.305387e+000
1.406332e+003,1.310158e+000
1.408261e+003,1.314033e+000
1.410190e+003,1.316872e+000
1.412120e+003,1.318941e+000
1.414049e+003,1.319597e+000
1.415979e+003,1.319548e+000
1.417908e+003,1.320690e+000
1.419837e+003,1.322211e+000
1.421767e+003,1.321261e+000
1.423696e+003,1.318563e+000
1.425625e+003,1.315492e+000
1.427555e+003,1.312682e+000
1.429484e+003,1.310922e+000
1.431414e+003,1.309879e+000
1.433343e+003,1.308908e+000
1.435272e+003,1.309770e+000
1.437202e+003,1.313667e+000
1.439131e+003,1.316946e+000
1.441061e+003,1.317999e+000
1.442990e+003,1.318833e+000
1.444919e+003,1.320696e+000
1.446849e+003,1.324090e+000
1.448778e+003,1.328064e+000
1.450708e+003,1.330159e+000
1.452637e+003,1.329967e+000
1.454566e+003,1.329663e+000
1.456496e+003,1.332899e+000
1.458425e+003,1.338014e+000
1.460354e+003,1.337042e+000
1.462284e+003,1.333292e+000
1.464213e+003,1.331218e+000
1.466143e+003,1.330300e+000
1.468072e+003,1.327721e+000
1.470001e+003,1.324272e+000
1.471931e+003,1.322911e+000
1.473860e+003,1.323868e+000
1.475790e+003,1.322512e+000
1.477719e+003,1.318344e+000
1.479648e+003,1.313982e+000
1.481578e+003,1.310187e+000
1.483507e+003,1.306431e+000
1.485437e+003,1.302876e+000
1.487366e+003,1.301223e+000
1.489295e+003,1.302585e+000
1.491225e+003,1.302875e+000
1.493154e+003,1.299603e+000
1.495083e+003,1.296359e+000
1.497013e+003,1.296031e+000
1.498942e+003,1.296679e+000
1.500872e+003,1.294338e+000
1.502801e+003,1.289635e+000
1.504730e+003,1.285422e+000
1.506660e+003,1.286465e+000
1.508589e+003,1.291957e+000
1.510519e+003,1.291065e+000
1.512448e+003,1.286470e+000
1.514377e+003,1.282524e+000
1.516307e+003,1.280664e+000
1.518236e+003,1.280329e+000
1.520166e+003,1.280859e+000
1.522095e+003,1.282641e+000
1.524024e+003,1.283943e+000
1.525954e+003,1.283765e+000
1.527883e+003,1.282556e+000
1.529812e+003,1.280463e+000
1.531742e+003,1.279416e+000
1.533671e+003,1.280809e+000
1.535601e+003,1.281218e+000
1.537530e+003,1.278988e+000
1.539459e+003,1.279387e+000
1.541389e+003,1.288124e+000
1.543318e+003,1.295115e+000
1.545248e+003,1.294434e+000
1.547177e+003,1.291219e+000
1.549106e+003,1.288353e+000
1.551036e+003,1.286195e+000
1.552965e+003,1.283824e+000
1.554894e+003,1.281021e+000
1.556824e+003,1.279739e+000
1.558753e+003,1.283872e+000
1.560683e+003,1.287055e+000
1.562612e+003,1.283810e+000
1.564541e+003,1.279516e+000
1.566471e+003,1.276621e+000
1.568400e+003,1.276080e+000
1.570330e+003,1.276737e+000
1.572259e+003,1.275395e+000
1.574188e+003,1.273470e+000
1.576118e+003,1.274757e+000
1.578047e+003,1.276886e+000
1.579977e+003,1.275607e+000
1.581906e+003,1.273319e+000
1.583835e+003,1.272154e+000
1.585765e+003,1.271838e+000
1.587694e+003,1.271809e+000
1.589623e+003,1.272117e+000
1.591553e+003,1.272856e+000
1.593482e+003,1.274105e+000
1.595412e+003,1.275711e+000
1.597341e+003,1.276963e+000
1.599270e+003,1.277744e+000
1.601200e+003,1.278903e+000
1.603129e+003,1.280646e+000
1.605059e+003,1.282351e+000
1.606988e+003,1.284195e+000
1.608917e+003,1.286598e+000
1.610847e+003,1.288442e+000
1.612776e+003,1.288924e+000
1.614705e+003,1.290341e+000
1.616635e+003,1.295553e+000
1.618564e+003,1.300731e+000
1.620494e+003,1.302048e+000
1.622423e+003,1.303468e+000
1.624352e+003,1.307084e+000
1.626282e+003,1.310533e+000
1.628211e+003,1.312728e+000
1.630141e+003,1.313286e+000
1.632070e+003,1.312162e+000
1.633999e+003,1.312460e+000
1.635929e+003,1.318477e+000
1.637858e+003,1.324985e+000
1.639788e+003,1.324884e+000
1.641717e+003,1.321739e+000
1.643646e+003,1.318916e+000
1.645576e+003,1.318893e+000
1.647505e+003,1.321875e+000
1.649434e+003,1.322207e+000
1.651364e+003,1.320410e+000
1.653293e+003,1.322558e+000
1.655223e+003,1.324389e+000
1.657152e+003,1.320318e+000
1.659081e+003,1.315095e+000
1.661011e+003,1.311775e+000
1.662940e+003,1.310158e+000
1.664870e+003,1.307301e+000
1.666799e+003,1.303041e+000
1.668728e+003,1.300191e+000
1.670658e+003,1.299160e+000
1.672587e+003,1.297106e+000
1.674516e+003,1.293885e+000
1.676446e+003,1.290241e+000
1.678375e+003,1.285729e+000
1.680305e+003,1.280929e+000
1.682234e+003,1.277670e+000
1.684163e+003,1.277481e+000
1.686093e+003,1.276820e+000
1.688022e+003,1.273055e+000
1.689952e+003,1.268123e+000
1.691881e+003,1.262761e+000
1.693810e+003,1.257742e+000
1.695740e+003,1.254576e+000
1.697669e+003,1.253938e+000
1.699599e+003,1.254340e+000
1.701528e+003,1.253362e+000
1.703457e+003,1.250711e+000
1.705387e+003,1.248115e+000
1.707316e+003,1.245712e+000
1.709245e+003,1.242304e+000
1.711175e+003,1.238138e+000
1.713104e+003,1.234516e+000
1.715034e+003,1.233330e+000
1.716963e+003,1.236305e+000
1.718892e+003,1.238799e+000
1.720822e+003,1.236615e+000
1.722751e+003,1.233110e+000
1.724681e+003,1.230177e+000
1.726610e+003,1.227491e+000
1.728539e+003,1.224945e+000
1.730469e+003,1.223191e+000
1.732398e+003,1.223619e+000
1.734328e+003,1.226477e+000
1.736257e+003,1.227164e+000
1.738186e+003,1.224851e+000
1.740116e+003,1.222830e+000
1.742045e+003,1.221725e+000
1.743974e+003,1.220301e+000
1.745904e+003,1.218752e+000
1.747833e+003,1.218455e+000
1.749763e+003,1.219831e+000
1.751692e+003,1.220192e+000
1.753621e+003,1.217908e+000
1.755551e+003,1.215178e+000
1.757480e+003,1.213553e+000
1.759410e+003,1.212857e+000
1.761339e+003,1.212944e+000
1.763268e+003,1.212870e+000
1.765198e+003,1.211237e+000
1.767127e+003,1.208922e+000
1.769057e+003,1.207699e+000
1.770986e+003,1.208863e+000
1.772915e+003,1.211763e+000
1.774845e+003,1.212459e+000
1.776774e+003,1.210343e+000
1.778703e+003,1.208255e+000
1.780633e+003,1.207534e+000
1.782562e+003,1.207410e+000
1.784492e+003,1.206983e+000
1.786421e+003,1.205849e+000
1.788350e+003,1.204025e+000
1.790280e+003,1.203086e+000
1.792209e+003,1.204788e+000
1.794139e+003,1.206851e+000
1.796068e+003,1.206333e+000
1.797997e+003,1.204857e+000
1.799927e+003,1.204522e+000
1.801856e+003,1.204994e+000
1.803786e+003,1.204491e+000
1.805715e+003,1.202879e+000
1.807644e+003,1.201515e+000
1.809574e+003,1.201467e+000
1.811503e+003,1.202296e+000
1.813432e+003,1.202409e+000
1.815362e+003,1.201554e+000
1.817291e+003,1.200682e+000
1.819221e+003,1.199956e+000
1.821150e+003,1.199083e+000
1.823079e+003,1.198539e+000
1.825009e+003,1.198605e+000
1.826938e+003,1.198782e+000
1.828868e+003,1.199496e+000
1.830797e+003,1.200711e+000
1.832726e+003,1.200473e+000
1.834656e+003,1.198994e+000
1.836585e+003,1.198014e+000
1.838515e+003,1.197365e+000
1.840444e+003,1.196142e+000
1.842373e+003,1.195488e+000
1.844303e+003,1.197093e+000
1.846232e+003,1.199255e+000
1.848161e+003,1.199324e+000
1.850091e+003,1.198029e+000
1.852020e+003,1.196725e+000
1.853950e+003,1.195896e+000
1.855879e+003,1.195555e+000
1.857808e+003,1.195499e+000
1.859738e+003,1.195434e+000
1.861667e+003,1.194941e+000
1.863597e+003,1.193792e+000
1.865526e+003,1.192806e+000
1.867455e+003,1.193734e+000
1.869385e+003,1.196356e+000
1.871314e+003,1.197265e+000
1.873244e+003,1.195933e+000
1.875173e+003,1.194498e+000
1.877102e+003,1.193841e+000
1.879032e+003,1.193614e+000
1.880961e+003,1.193442e+000
1.882891e+003,1.193217e+000
1.884820e+003,1.192816e+000
1.886749e+003,1.192430e+000
1.888679e+003,1.192758e+000
1.890608e+003,1.193561e+000
1.892537e+003,1.193686e+000
1.894467e+003,1.193349e+000
1.896396e+003,1.193179e+000
1.898326e+003,1.192840e+000
1.900255e+003,1.192269e+000
1.902184e+003,1.191846e+000
1.904114e+003,1.191548e+000
1.906043e+003,1.191369e+000
1.907973e+003,1.191663e+000
1.909902e+003,1.192290e+000
1.911831e+003,1.192289e+000
1.913761e+003,1.191357e+000
1.915690e+003,1.190583e+000
1.917619e+003,1.190883e+000
1.919549e+003,1.191557e+000
1.921478e+003,1.191850e+000
1.923408e+003,1.192120e+000
1.925337e+003,1.192129e+000
1.927266e+003,1.191494e+000
1.929196e+003,1.190770e+000
1.931125e+003,1.190406e+000
1.933055e+003,1.190275e+000
1.934984e+003,1.190113e+000
1.936913e+003,1.189665e+000
1.938843e+003,1.188992e+000
1.940772e+003,1.188827e+000
1.942702e+003,1.189693e+000
1.944631e+003,1.190623e+000
1.946560e+003,1.190603e+000
1.948490e+003,1.190085e+000
1.950419e+003,1.189672e+000
1.952348e+003,1.189398e+000
1.954278e+003,1.189239e+000
1.956207e+003,1.189319e+000
1.958137e+003,1.189636e+000
1.960066e+003,1.189864e+000
1.961995e+003,1.189666e+000
1.963925e+003,1.189295e+000
1.965854e+003,1.189435e+000
1.967784e+003,1.190097e+000
1.969713e+003,1.190408e+000
1.971642e+003,1.190129e+000
1.973572e+003,1.189854e+000
1.975501e+003,1.189863e+000
1.977430e+003,1.189997e+000
1.979360e+003,1.190141e+000
1.981289e+003,1.190260e+000
1.983219e+003,1.190263e+000
1.985148e+003,1.190090e+000
1.987077e+003,1.189840e+000
1.989007e+003,1.189771e+000
1.990936e+003,1.190176e+000
1.992866e+003,1.190795e+000
1.994795e+003,1.190855e+000
1.996724e+003,1.190389e+000
1.998654e+003,1.190032e+000
2.000583e+003,1.189856e+000
2.002513e+003,1.189620e+000
2.004442e+003,1.189364e+000
2.006371e+003,1.189199e+000
2.008301e+003,1.189088e+000
2.010230e+003,1.188885e+000
2.012159e+003,1.188515e+000
2.014089e+003,1.188165e+000
2.016018e+003,1.188177e+000
2.017948e+003,1.188510e+000
2.019877e+003,1.188661e+000
2.021806e+003,1.188457e+000
2.023736e+003,1.188162e+000
2.025665e+003,1.187958e+000
2.027595e+003,1.187914e+000
2.029524e+003,1.187995e+000
2.031453e+003,1.188017e+000
2.033383e+003,1.187911e+000
2.035312e+003,1.187780e+000
2.037241e+003,1.187683e+000
2.039171e+003,1.187673e+000
2.041100e+003,1.187853e+000
2.043030e+003,1.188156e+000
2.044959e+003,1.188358e+000
2.046888e+003,1.188400e+000
2.048818e+003,1.188369e+000
2.050747e+003,1.188345e+000
2.052677e+003,1.188395e+000
2.054606e+003,1.188535e+000
2.056535e+003,1.188740e+000
2.058465e+003,1.188984e+000
2.060394e+003,1.189160e+000
2.062323e+003,1.189259e+000
2.064253e+003,1.189465e+000
2.066182e+003,1.189736e+000
2.068112e+003,1.189800e+000
2.070041e+003,1.189726e+000
2.071970e+003,1.189774e+000
2.073900e+003,1.189941e+000
2.075829e+003,1.190113e+000
2.077759e+003,1.190268e+000
2.079688e+003,1.190351e+000
2.081617e+003,1.190323e+000
2.083547e+003,1.190266e+000
2.085476e+003,1.190258e+000
2.087406e+003,1.190311e+000
2.089335e+003,1.190413e+000
2.091264e+003,1.190477e+000
2.093194e+003,1.190410e+000
2.095123e+003,1.190285e+000
2.097052e+003,1.190248e+000
2.098982e+003,1.190305e+000
2.100911e+003,1.190368e+000
2.102841e+003,1.190397e+000
2.104770e+003,1.190394e+000
2.106699e+003,1.190361e+000
2.108629e+003,1.190309e+000
2.110558e+003,1.190222e+000
2.112488e+003,1.190126e+000
2.114417e+003,1.190158e+000
2.116346e+003,1.190363e+000
2.118276e+003,1.190590e+000
2.120205e+003,1.190670e+000
2.122135e+003,1.190586e+000
2.124064e+003,1.190476e+000
2.125993e+003,1.190467e+000
2.127923e+003,1.190519e+000
2.129852e+003,1.190515e+000
2.131781e+003,1.190439e+000
2.133711e+003,1.190396e+000
2.135640e+003,1.190466e+000
2.137570e+003,1.190627e+000
2.139499e+003,1.190807e+000
2.141428e+003,1.190967e+000
2.143358e+003,1.191072e+000
2.145287e+003,1.191057e+000
2.147217e+003,1.190931e+000
2.149146e+003,1.190807e+000
2.151075e+003,1.190722e+000
2.153005e+003,1.190617e+000
2.154934e+003,1.190489e+000
2.156864e+003,1.190406e+000
2.158793e+003,1.190428e+000
2.160722e+003,1.190546e+000
2.162652e+003,1.190628e+000
2.164581e+003,1.190559e+000
2.166510e+003,1.190434e+000
2.168440e+003,1.190389e+000
2.170369e+003,1.190381e+000
2.172299e+003,1.190301e+000
2.174228e+003,1.190129e+000
2.176157e+003,1.189937e+000
2.178087e+003,1.189815e+000
2.180016e+003,1.189794e+000
2.181946e+003,1.189829e+000
2.183875e+003,1.189847e+000
2.185804e+003,1.189829e+000
2.187734e+003,1.189829e+000
2.189663e+003,1.189845e+000
2.191593e+003,1.189823e+000
2.193522e+003,1.189798e+000
2.195451e+003,1.189863e+000
2.197381e+003,1.189994e+000
2.199310e+003,1.190083e+000
2.201240e+003,1.190097e+000
2.203169e+003,1.190057e+000
2.205098e+003,1.189975e+000
2.207028e+003,1.189910e+000
2.208957e+003,1.189950e+000
2.210886e+003,1.190114e+000
2.212816e+003,1.190324e+000
2.214745e+003,1.190474e+000
2.216675e+003,1.190526e+000
2.218604e+003,1.190569e+000
2.220533e+003,1.190692e+000
2.222463e+003,1.190861e+000
2.224392e+003,1.190989e+000
2.226322e+003,1.191077e+000
2.228251e+003,1.191204e+000
2.230180e+003,1.191361e+000
2.232110e+003,1.191463e+000
2.234039e+003,1.191498e+000
2.235969e+003,1.191547e+000
2.237898e+003,1.191671e+000
2.239827e+003,1.191853e+000
2.241757e+003,1.192056e+000
2.243686e+003,1.192313e+000
2.245615e+003,1.192626e+000
2.247545e+003,1.192920e+000
2.249474e+003,1.193156e+000
2.251404e+003,1.193342e+000
2.253333e+003,1.193492e+000
2.255262e+003,1.193673e+000
2.257192e+003,1.193975e+000
2.259121e+003,1.194380e+000
2.261051e+003,1.194783e+000
2.262980e+003,1.195134e+000
2.264909e+003,1.195421e+000
2.266839e+003,1.195631e+000
2.268768e+003,1.195807e+000
2.270698e+003,1.196010e+000
2.272627e+003,1.196219e+000
2.274556e+003,1.196387e+000
2.276486e+003,1.196525e+000
2.278415e+003,1.196621e+000
2.280344e+003,1.196550e+000
2.282274e+003,1.196261e+000
2.284203e+003,1.196033e+000
2.286133e+003,1.196313e+000
2.288062e+003,1.197262e+000
2.289991e+003,1.198588e+000
2.291921e+003,1.199911e+000
2.293850e+003,1.201133e+000
2.295780e+003,1.202309e+000
2.297709e+003,1.203431e+000
2.299638e+003,1.204500e+000
2.301568e+003,1.205477e+000
2.303497e+003,1.206336e+000
2.305427e+003,1.207455e+000
2.307356e+003,1.209377e+000
2.309285e+003,1.211902e+000
2.311215e+003,1.214098e+000
2.313144e+003,1.215539e+000
2.315073e+003,1.216822e+000
2.317003e+003,1.218496e+000
2.318932e+003,1.220366e+000
2.320862e+003,1.222133e+000
2.322791e+003,1.224265e+000
2.324720e+003,1.227594e+000
2.326650e+003,1.232080e+000
2.328579e+003,1.236564e+000
2.330509e+003,1.239929e+000
2.332438e+003,1.242023e+000
2.334367e+003,1.243451e+000
2.336297e+003,1.244592e+000
2.338226e+003,1.244637e+000
2.340156e+003,1.243431e+000
2.342085e+003,1.243093e+000
2.344014e+003,1.243650e+000
2.345944e+003,1.241376e+000
2.347873e+003,1.236253e+000
2.349802e+003,1.230861e+000
2.351732e+003,1.227227e+000
2.353661e+003,1.226595e+000
2.355591e+003,1.226931e+000
2.357520e+003,1.223523e+000
2.359449e+003,1.219810e+000
2.361379e+003,1.221195e+000
2.363308e+003,1.224790e+000
2.365238e+003,1.230006e+000
2.367167e+003,1.237244e+000
2.369096e+003,1.242350e+000
2.371026e+003,1.242156e+000
2.372955e+003,1.238048e+000
2.374885e+003,1.232729e+000
2.376814e+003,1.227293e+000
2.378743e+003,1.221836e+000
2.380673e+003,1.216587e+000
2.382602e+003,1.211851e+000
2.384531e+003,1.207787e+000
2.386461e+003,1.204494e+000
2.388390e+003,1.202094e+000
2.390320e+003,1.200627e+000
2.392249e+003,1.199937e+000
2.394178e+003,1.199735e+000
2.396108e+003,1.199755e+000
2.398037e+003,1.199840e+000
2.399967e+003,1.199949e+000
2.401896e+003,1.200054e+000
2.403825e+003,1.200100e+000
2.405755e+003,1.200089e+000
2.407684e+003,1.200082e+000
2.409614e+003,1.200131e+000
2.411543e+003,1.200195e+000
2.413472e+003,1.200194e+000
2.415402e+003,1.200158e+000
2.417331e+003,1.200190e+000
2.419260e+003,1.200296e+000
2.421190e+003,1.200407e+000
2.423119e+003,1.200480e+000
2.425049e+003,1.200512e+000
2.426978e+003,1.200525e+000
2.428907e+003,1.200543e+000
2.430837e+003,1.200556e+000
2.432766e+003,1.200526e+000
2.434696e+003,1.200468e+000
2.436625e+003,1.200438e+000
2.438554e+003,1.200414e+000
2.440484e+003,1.200349e+000
2.442413e+003,1.200280e+000
2.444342e+003,1.200280e+000
2.446272e+003,1.200322e+000
2.448201e+003,1.200301e+000
2.450131e+003,1.200196e+000
2.452060e+003,1.200140e+000
2.453989e+003,1.200245e+000
2.455919e+003,1.200396e+000
2.457848e+003,1.200421e+000
2.459778e+003,1.200352e+000
2.461707e+003,1.200309e+000
2.463636e+003,1.200298e+000
2.465566e+003,1.200272e+000
2.467495e+003,1.200207e+000
2.469425e+003,1.200113e+000
2.471354e+003,1.200018e+000
2.473283e+003,1.199934e+000
2.475213e+003,1.199865e+000
2.477142e+003,1.199808e+000
2.479071e+003,1.199731e+000
2.481001e+003,1.199617e+000
2.482930e+003,1.199516e+000
2.484860e+003,1.199487e+000
2.486789e+003,1.199536e+000
2.488718e+003,1.199602e+000
2.490648e+003,1.199602e+000
2.492577e+003,1.199518e+000
2.494507e+003,1.199431e+000
2.496436e+003,1.199428e+000
2.498365e+003,1.199484e+000
2.500295e+003,1.199481e+000
2.502224e+003,1.199381e+000
2.504153e+003,1.199281e+000
2.506083e+003,1.199259e+000
2.508012e+003,1.199277e+000
2.509942e+003,1.199297e+000
2.511871e+003,1.199346e+000
2.513800e+003,1.199434e+000
2.515730e+003,1.199499e+000
2.517659e+003,1.199488e+000
2.519589e+003,1.199430e+000
2.521518e+003,1.199365e+000
2.523447e+003,1.199312e+000
2.525377e+003,1.199300e+000
2.527306e+003,1.199338e+000
2.529236e+003,1.199412e+000
2.531165e+003,1.199497e+000
2.533094e+003,1.199561e+000
2.535024e+003,1.199619e+000
2.536953e+003,1.199695e+000
2.538882e+003,1.199733e+000
2.540812e+003,1.199690e+000
2.542741e+003,1.199608e+000
2.544671e+003,1.199557e+000
2.546600e+003,1.199579e+000
2.548529e+003,1.199666e+000
2.550459e+003,1.199753e+000
2.552388e+003,1.199772e+000
2.554318e+003,1.199746e+000
2.556247e+003,1.199764e+000
2.558176e+003,1.199842e+000
2.560106e+003,1.199886e+000
2.562035e+003,1.199859e+000
2.563964e+003,1.199854e+000
2.565894e+003,1.199895e+000
2.567823e+003,1.199933e+000
2.569753e+003,1.200019e+000
2.571682e+003,1.200192e+000
2.573611e+003,1.200340e+000
2.575541e+003,1.200370e+000
2.577470e+003,1.200380e+000
2.579400e+003,1.200505e+000
2.581329e+003,1.200714e+000
2.583258e+003,1.200902e+000
2.585188e+003,1.201067e+000
2.587117e+003,1.201257e+000
2.589047e+003,1.201447e+000
2.590976e+003,1.201581e+000
2.592905e+003,1.201679e+000
2.594835e+003,1.201849e+000
2.596764e+003,1.202177e+000
2.598693e+003,1.202593e+000
2.600623e+003,1.202895e+000
2.602552e+003,1.203040e+000
2.604482e+003,1.203206e+000
2.606411e+003,1.203440e+000
2.608340e+003,1.203595e+000
2.610270e+003,1.203681e+000
2.612199e+003,1.203871e+000
2.614129e+003,1.204244e+000
2.616058e+003,1.204741e+000
2.617987e+003,1.205227e+000
2.619917e+003,1.205574e+000
2.621846e+003,1.205810e+000
2.623775e+003,1.206047e+000
2.625705e+003,1.206275e+000
2.627634e+003,1.206426e+000
2.629564e+003,1.206553e+000
2.631493e+003,1.206751e+000
2.633422e+003,1.207036e+000
2.635352e+003,1.207400e+000
2.637281e+003,1.207817e+000
2.639211e+003,1.208200e+000
2.641140e+003,1.208478e+000
2.643069e+003,1.208695e+000
2.644999e+003,1.208986e+000
2.646928e+003,1.209406e+000
2.648858e+003,1.209807e+000
2.650787e+003,1.210052e+000
2.652716e+003,1.210250e+000
2.654646e+003,1.210565e+000
2.656575e+003,1.210959e+000
2.658504e+003,1.211303e+000
2.660434e+003,1.211599e+000
2.662363e+003,1.211923e+000
2.664293e+003,1.212278e+000
2.666222e+003,1.212621e+000
2.668151e+003,1.213002e+000
2.670081e+003,1.213536e+000
2.672010e+003,1.214221e+000
2.673940e+003,1.214910e+000
2.675869e+003,1.215471e+000
2.677798e+003,1.215845e+000
2.679728e+003,1.216005e+000
2.681657e+003,1.216053e+000
2.683586e+003,1.216214e+000
2.685516e+003,1.216535e+000
2.687445e+003,1.216879e+000
2.689375e+003,1.217194e+000
2.691304e+003,1.217526e+000
2.693233e+003,1.217878e+000
2.695163e+003,1.218238e+000
2.697092e+003,1.218593e+000
2.699022e+003,1.218894e+000
2.700951e+003,1.219141e+000
2.702880e+003,1.219445e+000
2.704810e+003,1.219902e+000
2.706739e+003,1.220429e+000
2.708669e+003,1.220843e+000
2.710598e+003,1.221100e+000
2.712527e+003,1.221375e+000
2.714457e+003,1.221806e+000
2.716386e+003,1.222344e+000
2.718315e+003,1.222913e+000
2.720245e+003,1.223472e+000
2.722174e+003,1.223979e+000
2.724104e+003,1.224389e+000
2.726033e+003,1.224621e+000
2.727962e+003,1.224684e+000
2.729892e+003,1.224780e+000
2.731821e+003,1.225085e+000
2.733751e+003,1.225607e+000
2.735680e+003,1.226226e+000
2.737609e+003,1.226749e+000
2.739539e+003,1.227127e+000
2.741468e+003,1.227507e+000
2.743397e+003,1.228026e+000
2.745327e+003,1.228668e+000
2.747256e+003,1.229228e+000
2.749186e+003,1.229519e+000
2.751115e+003,1.229661e+000
2.753044e+003,1.229888e+000
2.754974e+003,1.230229e+000
2.756903e+003,1.230600e+000
2.758833e+003,1.230962e+000
2.760762e+003,1.231282e+000
2.762691e+003,1.231526e+000
2.764621e+003,1.231760e+000
2.766550e+003,1.232116e+000
2.768480e+003,1.232631e+000
2.770409e+003,1.233253e+000
2.772338e+003,1.233865e+000
2.774268e+003,1.234293e+000
2.776197e+003,1.234503e+000
2.778126e+003,1.234681e+000
2.780056e+003,1.234954e+000
2.781985e+003,1.235302e+000
2.783915e+003,1.235793e+000
2.785844e+003,1.236527e+000
2.787773e+003,1.237301e+000
2.789703e+003,1.237742e+000
2.791632e+003,1.237874e+000
2.793562e+003,1.238110e+000
2.795491e+003,1.238604e+000
2.797420e+003,1.239041e+000
2.799350e+003,1.239149e+000
2.801279e+003,1.239102e+000
2.803208e+003,1.239276e+000
2.805138e+003,1.239831e+000
2.807067e+003,1.240585e+000
2.808997e+003,1.241202e+000
2.810926e+003,1.241527e+000
2.812855e+003,1.241736e+000
2.814785e+003,1.242072e+000
2.816714e+003,1.242534e+000
2.818644e+003,1.242992e+000
2.820573e+003,1.243433e+000
2.822502e+003,1.243900e+000
2.824432e+003,1.244397e+000
2.826361e+003,1.245004e+000
2.828291e+003,1.245839e+000
2.830220e+003,1.246845e+000
2.832149e+003,1.247857e+000
2.834079e+003,1.248846e+000
2.836008e+003,1.249860e+000
2.837938e+003,1.250728e+000
2.839867e+003,1.251276e+000
2.841796e+003,1.251839e+000
2.843726e+003,1.253012e+000
2.845655e+003,1.254860e+000
2.847584e+003,1.256817e+000
2.849514e+003,1.258414e+000
2.851443e+003,1.259683e+000
2.853373e+003,1.260763e+000
2.855302e+003,1.261585e+000
2.857231e+003,1.262003e+000
2.859161e+003,1.261886e+000
2.861090e+003,1.261338e+000
2.863020e+003,1.260814e+000
2.864949e+003,1.260632e+000
2.866878e+003,1.260791e+000
2.868808e+003,1.261332e+000
2.870737e+003,1.262127e+000
2.872667e+003,1.262581e+000
2.874596e+003,1.262336e+000
2.876525e+003,1.261809e+000
2.878455e+003,1.261576e+000
2.880384e+003,1.261729e+000
2.882313e+003,1.262015e+000
2.884243e+003,1.262263e+000
2.886172e+003,1.262547e+000
2.888102e+003,1.263029e+000
2.890031e+003,1.263779e+000
2.891960e+003,1.264761e+000
2.893890e+003,1.265765e+000
2.895819e+003,1.266484e+000
2.897749e+003,1.266953e+000
2.899678e+003,1.267585e+000
2.901607e+003,1.268567e+000
2.903537e+003,1.269661e+000
2.905466e+003,1.270747e+000
2.907396e+003,1.272069e+000
2.909325e+003,1.273758e+000
2.911254e+003,1.275595e+000
2.913184e+003,1.277330e+000
2.915113e+003,1.278896e+000
2.917042e+003,1.280282e+000
2.918972e+003,1.281465e+000
2.920901e+003,1.282502e+000
2.922831e+003,1.283523e+000
2.924760e+003,1.284616e+000
2.926689e+003,1.285694e+000
2.928619e+003,1.286326e+000
2.930548e+003,1.286103e+000
2.932478e+003,1.285232e+000
2.934407e+003,1.284247e+000
2.936336e+003,1.283422e+000
2.938266e+003,1.282860e+000
2.940195e+003,1.282688e+000
2.942125e+003,1.282791e+000
2.944054e+003,1.282745e+000
2.945983e+003,1.282349e+000
2.947913e+003,1.281903e+000
2.949842e+003,1.281718e+000
2.951771e+003,1.281679e+000
2.953701e+003,1.281604e+000
2.955630e+003,1.281621e+000
2.957560e+003,1.281915e+000
2.959489e+003,1.282458e+000
2.961418e+003,1.282974e+000
2.963348e+003,1.283111e+000
2.965277e+003,1.282880e+000
2.967207e+003,1.282635e+000
2.969136e+003,1.282590e+000
2.971065e+003,1.282689e+000
2.972995e+003,1.282786e+000
2.974924e+003,1.282859e+000
2.976854e+003,1.283038e+000
2.978783e+003,1.283254e+000
2.980712e+003,1.283174e+000
2.982642e+003,1.282674e+000
2.984571e+003,1.282078e+000
2.986500e+003,1.281857e+000
2.988430e+003,1.282233e+000
2.990359e+003,1.282900e+000
2.992289e+003,1.283319e+000
2.994218e+003,1.283402e+000
2.996147e+003,1.283341e+000
2.998077e+003,1.283095e+000
3.000006e+003,1.282745e+000
3.001936e+003,1.282631e+000
3.003865e+003,1.282908e+000
3.005794e+003,1.283565e+000
3.007724e+003,1.284552e+000
3.009653e+003,1.285703e+000
3.011583e+003,1.286796e+000
3.013512e+003,1.287599e+000
3.015441e+003,1.287960e+000
3.017371e+003,1.287937e+000
3.019300e+003,1.287729e+000
3.021229e+003,1.287566e+000
3.023159e+003,1.287564e+000
3.025088e+003,1.287618e+000
3.027018e+003,1.287739e+000
3.028947e+003,1.288209e+000
3.030876e+003,1.289134e+000
3.032806e+003,1.290128e+000
3.034735e+003,1.290745e+000
3.036665e+003,1.291170e+000
3.038594e+003,1.291904e+000
3.040523e+003,1.292824e+000
3.042453e+003,1.293393e+000
3.044382e+003,1.293564e+000
3.046312e+003,1.293760e+000
3.048241e+003,1.294218e+000
3.050170e+003,1.294759e+000
3.052100e+003,1.295138e+000
3.054029e+003,1.295326e+000
3.055958e+003,1.295374e+000
3.057888e+003,1.295393e+000
3.059817e+003,1.295644e+000
3.061747e+003,1.296298e+000
3.063676e+003,1.297269e+000
3.065605e+003,1.298211e+000
3.067535e+003,1.298631e+000
3.069464e+003,1.298546e+000
3.071394e+003,1.298679e+000
3.073323e+003,1.299479e+000
3.075252e+003,1.300598e+000
3.077182e+003,1.301542e+000
3.079111e+003,1.302195e+000
3.081041e+003,1.302619e+000
3.082970e+003,1.302845e+000
3.084899e+003,1.302961e+000
3.086829e+003,1.303062e+000
3.088758e+003,1.303044e+000
3.090688e+003,1.302775e+000
3.092617e+003,1.302489e+000
3.094546e+003,1.302645e+000
3.096476e+003,1.303314e+000
3.098405e+003,1.304004e+000
3.100334e+003,1.304309e+000
3.102264e+003,1.304429e+000
3.104193e+003,1.304803e+000
3.106123e+003,1.305506e+000
3.108052e+003,1.306201e+000
3.109981e+003,1.306642e+000
3.111911e+003,1.307079e+000
3.113840e+003,1.307898e+000
3.115770e+003,1.309016e+000
3.117699e+003,1.309895e+000
3.119628e+003,1.310038e+000
3.121558e+003,1.309536e+000
3.123487e+003,1.309035e+000
3.125417e+003,1.309135e+000
3.127346e+003,1.309820e+000
3.129275e+003,1.310495e+000
3.131205e+003,1.310809e+000
3.133134e+003,1.311169e+000
3.135063e+003,1.311956e+000
3.136993e+003,1.312768e+000
3.138922e+003,1.312932e+000
3.140852e+003,1.312480e+000
3.142781e+003,1.312197e+000
3.144710e+003,1.312652e+000
3.146640e+003,1.313776e+000
3.148569e+003,1.315313e+000
3.150499e+003,1.316806e+000
3.152428e+003,1.317573e+000
3.154357e+003,1.317488e+000
3.156287e+003,1.317166e+000
3.158216e+003,1.317079e+000
3.160146e+003,1.317231e+000
3.162075e+003,1.317616e+000
3.164004e+003,1.318273e+000
3.165934e+003,1.319006e+000
3.167863e+003,1.319573e+000
3.169792e+003,1.320016e+000
3.171722e+003,1.320513e+000
3.173651e+003,1.321138e+000
3.175581e+003,1.321862e+000
3.177510e+003,1.322605e+000
3.179439e+003,1.323263e+000
3.181369e+003,1.323843e+000
3.183298e+003,1.324481e+000
3.185228e+003,1.325257e+000
3.187157e+003,1.326111e+000
3.189086e+003,1.326918e+000
3.191016e+003,1.327549e+000
3.192945e+003,1.327931e+000
3.194875e+003,1.328225e+000
3.196804e+003,1.328773e+000
3.198733e+003,1.329667e+000
3.200663e+003,1.330643e+000
3.202592e+003,1.331501e+000
3.204521e+003,1.332184e+000
3.206451e+003,1.332632e+000
3.208380e+003,1.332963e+000
3.210310e+003,1.333422e+000
3.212239e+003,1.334025e+000
3.214168e+003,1.334693e+000
3.216098e+003,1.335524e+000
3.218027e+003,1.336401e+000
3.219957e+003,1.336931e+000
3.221886e+003,1.337123e+000
3.223815e+003,1.337368e+000
3.225745e+003,1.337904e+000
3.227674e+003,1.338872e+000
3.229603e+003,1.340333e+000
3.231533e+003,1.341826e+000
3.233462e+003,1.342600e+000
3.235392e+003,1.342609e+000
3.237321e+003,1.342521e+000
3.239250e+003,1.342807e+000
3.241180e+003,1.343587e+000
3.243109e+003,1.344849e+000
3.245039e+003,1.346087e+000
3.246968e+003,1.346478e+000
3.248897e+003,1.346060e+000
3.250827e+003,1.345873e+000
3.252756e+003,1.346492e+000
3.254686e+003,1.347289e+000
3.256615e+003,1.347549e+000
3.258544e+003,1.347446e+000
3.260474e+003,1.347457e+000
3.262403e+003,1.347805e+000
3.264332e+003,1.348706e+000
3.266262e+003,1.350277e+000
3.268191e+003,1.352085e+000
3.270121e+003,1.353332e+000
3.272050e+003,1.353639e+000
3.273979e+003,1.353288e+000
3.275909e+003,1.352754e+000
3.277838e+003,1.352388e+000
3.279768e+003,1.352361e+000
3.281697e+003,1.352615e+000
3.283626e+003,1.353007e+000
3.285556e+003,1.353608e+000
3.287485e+003,1.354664e+000
3.289414e+003,1.356116e+000
3.291344e+003,1.357504e+000
3.293273e+003,1.358377e+000
3.295203e+003,1.358581e+000
3.297132e+003,1.358370e+000
3.299061e+003,1.358399e+000
3.300991e+003,1.359213e+000
3.302920e+003,1.360663e+000
3.304850e+003,1.362058e+000
3.306779e+003,1.362776e+000
3.308708e+003,1.362653e+000
3.310638e+003,1.362078e+000
3.312567e+003,1.361648e+000
3.314497e+003,1.361614e+000
3.316426e+003,1.361946e+000
3.318355e+003,1.362659e+000
3.320285e+003,1.363716e+000
3.322214e+003,1.364963e+000
3.324143e+003,1.366081e+000
3.326073e+003,1.366625e+000
3.328002e+003,1.366574e+000
3.329932e+003,1.366533e+000
3.331861e+003,1.367145e+000
3.333790e+003,1.368659e+000
3.335720e+003,1.370642e+000
3.337649e+003,1.372168e+000
3.339579e+003,1.372831e+000
3.341508e+003,1.372951e+000
3.343437e+003,1.372924e+000
3.345367e+003,1.373292e+000
3.347296e+003,1.374431e+000
3.349225e+003,1.375697e+000
3.351155e+003,1.376158e+000
3.353084e+003,1.376029e+000
3.355014e+003,1.376278e+000
3.356943e+003,1.377332e+000
3.358872e+003,1.378770e+000
3.360802e+003,1.379980e+000
3.362731e+003,1.381007e+000
3.364661e+003,1.382364e+000
3.366590e+003,1.384020e+000
3.368519e+003,1.385213e+000
3.370449e+003,1.385379e+000
3.372378e+003,1.384904e+000
3.374308e+003,1.384719e+000
3.376237e+003,1.385163e+000
3.378166e+003,1.385712e+000
3.380096e+003,1.385898e+000
3.382025e+003,1.385958e+000
3.383954e+003,1.386409e+000
3.385884e+003,1.387522e+000
3.387813e+003,1.389245e+000
3.389743e+003,1.391087e+000
3.391672e+003,1.392285e+000
3.393601e+003,1.392654e+000
3.395531e+003,1.392851e+000
3.397460e+003,1.393349e+000
3.399390e+003,1.393749e+000
3.401319e+003,1.393549e+000
3.403248e+003,1.393060e+000
3.405178e+003,1.392944e+000
3.407107e+003,1.393236e+000
3.409036e+003,1.393530e+000
3.410966e+003,1.393641e+000
3.412895e+003,1.393406e+000
3.414825e+003,1.392738e+000
3.416754e+003,1.392152e+000
3.418683e+003,1.392018e+000
3.420613e+003,1.391868e+000
3.422542e+003,1.391558e+000
3.424472e+003,1.391853e+000
3.426401e+003,1.392944e+000
3.428330e+003,1.393997e+000
3.430260e+003,1.394447e+000
3.432189e+003,1.394527e+000
3.434119e+003,1.394331e+000
3.436048e+003,1.393407e+000
3.437977e+003,1.391770e+000
3.439907e+003,1.390202e+000
3.441836e+003,1.389210e+000
3.443765e+003,1.388671e+000
3.445695e+003,1.388240e+000
3.447624e+003,1.387570e+000
3.449554e+003,1.386712e+000
3.451483e+003,1.386097e+000
3.453412e+003,1.385905e+000
3.455342e+003,1.386048e+000
3.457271e+003,1.386247e+000
3.459201e+003,1.386046e+000
3.461130e+003,1.385508e+000
3.463059e+003,1.385477e+000
3.464989e+003,1.386243e+000
3.466918e+003,1.386697e+000
3.468847e+003,1.385687e+000
3.470777e+003,1.383543e+000
3.472706e+003,1.381502e+000
3.474636e+003,1.380273e+000
3.476565e+003,1.379783e+000
3.478494e+003,1.379410e+000
3.480424e+003,1.378467e+000
3.482353e+003,1.377229e+000
3.484283e+003,1.376515e+000
3.486212e+003,1.376092e+000
3.488141e+003,1.375288e+000
3.490071e+003,1.374307e+000
3.492000e+003,1.373641e+000
3.493930e+003,1.373223e+000
3.495859e+003,1.372611e+000
3.497788e+003,1.371606e+000
3.499718e+003,1.370430e+000
3.501647e+003,1.368866e+000
3.503576e+003,1.366471e+000
3.505506e+003,1.364026e+000
3.507435e+003,1.362568e+000
3.509365e+003,1.361933e+000
3.511294e+003,1.361569e+000
3.513223e+003,1.360887e+000
3.515153e+003,1.359479e+000
3.517082e+003,1.357742e+000
3.519012e+003,1.356532e+000
3.520941e+003,1.356006e+000
3.522870e+003,1.355186e+000
3.524800e+003,1.353336e+000
3.526729e+003,1.351136e+000
3.528658e+003,1.349329e+000
3.530588e+003,1.347883e+000
3.532517e+003,1.346850e+000
3.534447e+003,1.346107e+000
3.536376e+003,1.345044e+000
3.538305e+003,1.343614e+000
3.540235e+003,1.342464e+000
3.542164e+003,1.341578e+000
3.544094e+003,1.340073e+000
3.546023e+003,1.337318e+000
3.547952e+003,1.334055e+000
3.549882e+003,1.331366e+000
3.551811e+003,1.329134e+000
3.553740e+003,1.327116e+000
3.555670e+003,1.325498e+000
3.557599e+003,1.324141e+000
3.559529e+003,1.322617e+000
3.561458e+003,1.320618e+000
3.563387e+003,1.318116e+000
3.565317e+003,1.315355e+000
3.567246e+003,1.312956e+000
3.569176e+003,1.311564e+000
3.571105e+003,1.310448e+000
3.573034e+003,1.308808e+000
3.574964e+003,1.306823e+000
3.576893e+003,1.304915e+000
3.578823e+003,1.303252e+000
3.580752e+003,1.301766e+000
3.582681e+003,1.300189e+000
3.584611e+003,1.297985e+000
3.586540e+003,1.294744e+000
3.588469e+003,1.291348e+000
3.590399e+003,1.289079e+000
3.592328e+003,1.286960e+000
3.594258e+003,1.284239e+000
3.596187e+003,1.281829e+000
3.598116e+003,1.280163e+000
3.600046e+003,1.278371e+000
3.601975e+003,1.275966e+000
3.603905e+003,1.272971e+000
3.605834e+003,1.269419e+000
3.607763e+003,1.265704e+000
3.609693e+003,1.262498e+000
3.611622e+003,1.259861e+000
3.613552e+003,1.257504e+000
3.615481e+003,1.255418e+000
3.617410e+003,1.253441e+000
3.619340e+003,1.251678e+000
3.621269e+003,1.250343e+000
3.623198e+003,1.248640e+000
3.625128e+003,1.245742e+000
3.627057e+003,1.241616e+000
3.628987e+003,1.237727e+000
3.630916e+003,1.236539e+000
3.632845e+003,1.236197e+000
3.634775e+003,1.234440e+000
3.636704e+003,1.231887e+000
3.638634e+003,1.229288e+000
3.640563e+003,1.226768e+000
3.642492e+003,1.224182e+000
3.644422e+003,1.221255e+000
3.646351e+003,1.217991e+000
3.648281e+003,1.215325e+000
3.650210e+003,1.215004e+000
3.652139e+003,1.215424e+000
3.654069e+003,1.214300e+000
3.655998e+003,1.212872e+000
3.657927e+003,1.212042e+000
3.659857e+003,1.210820e+000
3.661786e+003,1.208605e+000
3.663716e+003,1.206141e+000
3.665645e+003,1.203591e+000
3.667574e+003,1.200546e+000
3.669504e+003,1.197911e+000
3.671433e+003,1.197279e+000
3.673363e+003,1.196922e+000
3.675292e+003,1.195741e+000
3.677221e+003,1.196481e+000
3.679151e+003,1.198176e+000
3.681080e+003,1.198164e+000
3.683010e+003,1.197149e+000
3.684939e+003,1.195807e+000
3.686868e+003,1.194017e+000
3.688798e+003,1.192319e+000
3.690727e+003,1.192563e+000
3.692656e+003,1.194110e+000
3.694586e+003,1.194107e+000
3.696515e+003,1.192626e+000
3.698445e+003,1.190791e+000
3.700374e+003,1.189289e+000
3.702303e+003,1.188870e+000
3.704233e+003,1.189360e+000
3.706162e+003,1.188936e+000
3.708092e+003,1.186861e+000
3.710021e+003,1.184336e+000
3.711950e+003,1.183789e+000
3.713880e+003,1.185304e+000
3.715809e+003,1.185747e+000
3.717739e+003,1.184717e+000
3.719668e+003,1.183526e+000
3.721597e+003,1.183030e+000
3.723527e+003,1.183243e+000
3.725456e+003,1.183893e+000
3.727385e+003,1.184614e+000
3.729315e+003,1.184634e+000
3.731244e+003,1.183597e+000
3.733174e+003,1.182130e+000
3.735103e+003,1.181770e+000
3.737032e+003,1.183304e+000
3.738962e+003,1.184095e+000
3.740891e+003,1.182160e+000
3.742821e+003,1.178204e+000
3.744750e+003,1.174945e+000
3.746679e+003,1.174598e+000
3.748609e+003,1.174208e+000
3.750538e+003,1.172737e+000
3.752468e+003,1.174013e+000
3.754397e+003,1.176767e+000
3.756326e+003,1.177258e+000
3.758256e+003,1.176385e+000
3.760185e+003,1.176313e+000
3.762115e+003,1.176970e+000
3.764044e+003,1.176879e+000
3.765973e+003,1.176169e+000
3.767903e+003,1.175536e+000
3.769832e+003,1.175356e+000
3.771761e+003,1.176019e+000
3.773691e+003,1.176798e+000
3.775620e+003,1.176664e+000
3.777550e+003,1.175768e+000
3.779479e+003,1.175032e+000
3.781408e+003,1.174997e+000
3.783338e+003,1.174979e+000
3.785267e+003,1.174780e+000
3.787197e+003,1.174918e+000
3.789126e+003,1.175047e+000
3.791055e+003,1.174693e+000
3.792985e+003,1.173883e+000
3.794914e+003,1.172785e+000
3.796844e+003,1.171973e+000
3.798773e+003,1.171445e+000
3.800702e+003,1.170740e+000
3.802632e+003,1.171128e+000
3.804561e+003,1.172361e+000
3.806490e+003,1.172655e+000
3.808420e+003,1.173113e+000
3.810349e+003,1.174002e+000
3.812279e+003,1.173639e+000
3.814208e+003,1.171918e+000
3.816137e+003,1.170471e+000
3.818067e+003,1.170205e+000
3.819996e+003,1.169775e+000
3.821926e+003,1.169973e+000
3.823855e+003,1.171794e+000
3.825784e+003,1.172762e+000
3.827714e+003,1.172514e+000
3.829643e+003,1.172109e+000
3.831573e+003,1.171830e+000
3.833502e+003,1.171741e+000
3.835431e+003,1.171224e+000
3.837361e+003,1.169926e+000
3.839290e+003,1.169701e+000
3.841219e+003,1.171425e+000
3.843149e+003,1.173007e+000
3.845078e+003,1.173519e+000
3.847008e+003,1.173102e+000
3.848937e+003,1.171579e+000
3.850866e+003,1.168590e+000
3.852796e+003,1.165071e+000
3.854725e+003,1.165914e+000
3.856655e+003,1.170580e+000
3.858584e+003,1.172273e+000
3.860513e+003,1.171162e+000
3.862443e+003,1.169299e+000
3.864372e+003,1.168539e+000
3.866302e+003,1.169076e+000
3.868231e+003,1.168881e+000
3.870160e+003,1.168089e+000
3.872090e+003,1.168490e+000
3.874019e+003,1.169644e+000
3.875948e+003,1.170335e+000
3.877878e+003,1.170049e+000
3.879807e+003,1.169260e+000
3.881737e+003,1.169491e+000
3.883666e+003,1.170329e+000
3.885595e+003,1.170437e+000
3.887525e+003,1.170450e+000
3.889454e+003,1.170077e+000
3.891384e+003,1.169305e+000
3.893313e+003,1.169762e+000
3.895242e+003,1.170708e+000
3.897172e+003,1.170071e+000
3.899101e+003,1.168259e+000
3.901031e+003,1.166870e+000
3.902960e+003,1.166795e+000
3.904889e+003,1.168085e+000
3.906819e+003,1.169897e+000
3.908748e+003,1.170751e+000
3.910677e+003,1.170513e+000
3.912607e+003,1.170004e+000
3.914536e+003,1.169502e+000
3.916466e+003,1.168897e+000
3.918395e+003,1.168648e+000
3.920324e+003,1.168975e+000
3.922254e+003,1.169130e+000
3.924183e+003,1.169039e+000
3.926113e+003,1.169301e+000
3.928042e+003,1.169564e+000
3.929971e+003,1.169292e+000
3.931901e+003,1.169158e+000
3.933830e+003,1.169698e+000
3.935760e+003,1.170076e+000
3.937689e+003,1.169735e+000
3.939618e+003,1.169005e+000
3.941548e+003,1.168366e+000
3.943477e+003,1.168316e+000
3.945406e+003,1.168669e+000
3.947336e+003,1.168625e+000
3.949265e+003,1.168385e+000
3.951195e+003,1.168628e+000
3.953124e+003,1.169008e+000
3.955053e+003,1.168977e+000
3.956983e+003,1.168677e+000
3.958912e+003,1.168392e+000
3.960842e+003,1.168261e+000
3.962771e+003,1.168370e+000
3.964700e+003,1.168507e+000
3.966630e+003,1.168324e+000
3.968559e+003,1.167984e+000
3.970489e+003,1.167922e+000
3.972418e+003,1.168208e+000
3.974347e+003,1.168604e+000
3.976277e+003,1.168878e+000
3.978206e+003,1.168949e+000
3.980135e+003,1.168909e+000
3.982065e+003,1.168842e+000
3.983994e+003,1.168688e+000
3.985924e+003,1.168405e+000
3.987853e+003,1.168107e+000
3.989782e+003,1.167933e+000
3.991712e+003,1.167869e+000
3.993641e+003,1.167814e+000
3.995571e+003,1.167761e+000
3.997500e+003,1.167724e+000
3.999429e+003,1.167642e+000
4.001359e+003,1.167568e+000
