3.991909e+002,1.445691e-002
4.011194e+002,6.786006e-003
4.030479e+002,7.419512e-003
4.049763e+002,9.195771e-003
4.069048e+002,8.961394e-003
4.088333e+002,6.617015e-003
4.107617e+002,3.119825e-003
4.126902e+002,7.662643e-005
4.146186e+002,-1.353745e-003
4.165471e+002,-1.509826e-003
4.184755e+002,-3.315273e-004
4.204040e+002,1.319926e-003
4.223325e+002,4.692550e-004
4.242609e+002,-2.249436e-003
4.261894e+002,-2.773508e-003
4.281178e+002,1.264205e-003
4.300463e+002,7.517889e-003
4.319747e+002,1.113005e-002
4.339032e+002,9.459572e-003
4.358317e+002,5.612534e-003
4.377601e+002,4.573331e-003
4.396886e+002,4.119842e-003
4.416170e+002,2.441182e-003
4.435455e+002,6.849929e-004
4.454740e+002,1.593902e-003
4.474024e+002,2.880176e-003
4.493309e+002,2.002279e-003
4.512593e+002,5.987482e-004
4.531878e+002,1.594151e-003
4.551162e+002,5.366771e-003
4.570447e+002,8.382872e-003
4.589732e+002,7.101970e-003
4.609016e+002,3.448910e-003
4.628301e+002,5.726877e-004
4.647585e+002,-4.947269e-004
4.666870e+002,1.147721e-003
4.686154e+002,5.267966e-003
4.705439e+002,8.683658e-003
4.724724e+002,8.225411e-003
4.744008e+002,6.095441e-003
4.763293e+002,6.124255e-003
4.782578e+002,8.119194e-003
4.801862e+002,1.054714e-002
4.821147e+002,1.254380e-002
4.840431e+002,1.351785e-002
4.859716e+002,1.364467e-002
4.879001e+002,1.377069e-002
4.898285e+002,1.433356e-002
4.917570e+002,1.541445e-002
4.936854e+002,1.678333e-002
4.956139e+002,1.808503e-002
4.975423e+002,1.929993e-002
4.994708e+002,2.031371e-002
5.013993e+002,2.120103e-002
5.033277e+002,2.285704e-002
5.052562e+002,2.523807e-002
5.071846e+002,2.704779e-002
5.091131e+002,2.818117e-002
5.110416e+002,2.980703e-002
5.129700e+002,3.259740e-002
5.148985e+002,3.639352e-002
5.168269e+002,4.030541e-002
5.187554e+002,4.342191e-002
5.206838e+002,4.613961e-002
5.226123e+002,4.924060e-002
5.245408e+002,5.253983e-002
5.264692e+002,5.551806e-002
5.283977e+002,5.826766e-002
5.303261e+002,6.143495e-002
5.322546e+002,6.532336e-002
5.341830e+002,6.933244e-002
5.361115e+002,7.311396e-002
5.380400e+002,7.756343e-002
5.399684e+002,8.316839e-002
5.418969e+002,8.930843e-002
5.438254e+002,9.620155e-002
5.457538e+002,1.049784e-001
5.476823e+002,1.155075e-001
5.496107e+002,1.269373e-001
5.515392e+002,1.398062e-001
5.534677e+002,1.552575e-001
5.553961e+002,1.735053e-001
5.573246e+002,1.937201e-001
5.592530e+002,2.135976e-001
5.611815e+002,2.294823e-001
5.631099e+002,2.391277e-001
5.650384e+002,2.429904e-001
5.669669e+002,2.418358e-001
5.688953e+002,2.367035e-001
5.708238e+002,2.303851e-001
5.727523e+002,2.245696e-001
5.746807e+002,2.177106e-001
5.766091e+002,2.082486e-001
5.785376e+002,1.973528e-001
5.804661e+002,1.869649e-001
5.823945e+002,1.776937e-001
5.843230e+002,1.693907e-001
5.862515e+002,1.625039e-001
5.881799e+002,1.582969e-001
5.901083e+002,1.577306e-001
5.920368e+002,1.610747e-001
5.939653e+002,1.684270e-001
5.958937e+002,1.793528e-001
5.978222e+002,1.923116e-001
5.997507e+002,2.048655e-001
6.016791e+002,2.140366e-001
6.036075e+002,2.174456e-001
6.055360e+002,2.146010e-001
6.074645e+002,2.062150e-001
6.093929e+002,1.933717e-001
6.113214e+002,1.783771e-001
6.132499e+002,1.641572e-001
6.151783e+002,1.513847e-001
6.171068e+002,1.384703e-001
6.190352e+002,1.251912e-001
6.209637e+002,1.132269e-001
6.228922e+002,1.031411e-001
6.248206e+002,9.439382e-002
6.267491e+002,8.677612e-002
6.286776e+002,8.016641e-002
6.306060e+002,7.390813e-002
6.325344e+002,6.740230e-002
6.344629e+002,6.090802e-002
6.363914e+002,5.524829e-002
6.383198e+002,5.085982e-002
6.402483e+002,4.746901e-002
6.421768e+002,4.468719e-002
6.441052e+002,4.249413e-002
6.460337e+002,4.097080e-002
6.479621e+002,3.969221e-002
6.498906e+002,3.801246e-002
6.518190e+002,3.637007e-002
6.537475e+002,3.579332e-002
6.556760e+002,3.585812e-002
6.576044e+002,3.499125e-002
6.595329e+002,3.293404e-002
6.614613e+002,3.123436e-002
6.633898e+002,3.101316e-002
6.653182e+002,3.191873e-002
6.672467e+002,3.315371e-002
6.691752e+002,3.372286e-002
6.711036e+002,3.340511e-002
6.730321e+002,3.276891e-002
6.749606e+002,3.189013e-002
6.768890e+002,3.110322e-002
6.788174e+002,3.091305e-002
6.807459e+002,3.112022e-002
6.826744e+002,3.100749e-002
6.846028e+002,3.047668e-002
6.865313e+002,3.011027e-002
6.884598e+002,2.999501e-002
6.903882e+002,2.970224e-002
6.923167e+002,2.918798e-002
6.942451e+002,2.865850e-002
6.961736e+002,2.825274e-002
6.981021e+002,2.810103e-002
7.000305e+002,2.789275e-002
7.019590e+002,2.689720e-002
7.038875e+002,2.502622e-002
7.058159e+002,2.316334e-002
7.077443e+002,2.212529e-002
7.096728e+002,2.176280e-002
7.116013e+002,2.136854e-002
7.135297e+002,2.077004e-002
7.154582e+002,2.049022e-002
7.173867e+002,2.081526e-002
7.193151e+002,2.117737e-002
7.212435e+002,2.070983e-002
7.231720e+002,1.959377e-002
7.251005e+002,1.870817e-002
7.270289e+002,1.810703e-002
7.289574e+002,1.724641e-002
7.308859e+002,1.628928e-002
7.328143e+002,1.599642e-002
7.347427e+002,1.638782e-002
7.366712e+002,1.661690e-002
7.385997e+002,1.622109e-002
7.405281e+002,1.563461e-002
7.424566e+002,1.543614e-002
7.443851e+002,1.556418e-002
7.463135e+002,1.538192e-002
7.482419e+002,1.461323e-002
7.501704e+002,1.375496e-002
7.520989e+002,1.321706e-002
7.540273e+002,1.272926e-002
7.559558e+002,1.195312e-002
7.578843e+002,1.110394e-002
7.598127e+002,1.060594e-002
7.617412e+002,1.052142e-002
7.636696e+002,1.056429e-002
7.655981e+002,1.048186e-002
7.675266e+002,1.030373e-002
7.694550e+002,1.019660e-002
7.713835e+002,1.005914e-002
7.733120e+002,9.603566e-003
7.752404e+002,8.998861e-003
7.771688e+002,8.704888e-003
7.790973e+002,8.629958e-003
7.810258e+002,8.318943e-003
7.829542e+002,7.785148e-003
7.848827e+002,7.482313e-003
7.868112e+002,7.551678e-003
7.887396e+002,7.601090e-003
7.906681e+002,7.416813e-003
7.925965e+002,7.355663e-003
7.945250e+002,7.700101e-003
7.964534e+002,8.073381e-003
7.983819e+002,7.859902e-003
8.003104e+002,7.050471e-003
8.022388e+002,6.234399e-003
8.041673e+002,5.836294e-003
8.060957e+002,5.737067e-003
8.080242e+002,5.716275e-003
8.099526e+002,5.593086e-003
8.118811e+002,5.539402e-003
8.138096e+002,5.902060e-003
8.157380e+002,6.400723e-003
8.176665e+002,6.477952e-003
8.195950e+002,6.339788e-003
8.215234e+002,6.517289e-003
8.234518e+002,6.834075e-003
8.253803e+002,6.774644e-003
8.273088e+002,6.517227e-003
8.292372e+002,6.679079e-003
8.311657e+002,7.231392e-003
8.330942e+002,7.483968e-003
8.350226e+002,7.143405e-003
8.369510e+002,6.824803e-003
8.388795e+002,7.286507e-003
8.408080e+002,8.537306e-003
8.427365e+002,1.002442e-002
8.446649e+002,1.134683e-002
8.465934e+002,1.251370e-002
8.485219e+002,1.366838e-002
8.504503e+002,1.476120e-002
8.523787e+002,1.568524e-002
8.543072e+002,1.664849e-002
8.562357e+002,1.806932e-002
8.581641e+002,2.018798e-002
8.600926e+002,2.299162e-002
8.620211e+002,2.635658e-002
8.639495e+002,3.032437e-002
8.658779e+002,3.516929e-002
8.678064e+002,4.080665e-002
8.697349e+002,4.636293e-002
8.716633e+002,5.079971e-002
8.735918e+002,5.375094e-002
8.755203e+002,5.537979e-002
8.774487e+002,5.532262e-002
8.793771e+002,5.244265e-002
8.813056e+002,4.651431e-002
8.832341e+002,3.936816e-002
8.851625e+002,3.332562e-002
8.870910e+002,2.927698e-002
8.890195e+002,2.689086e-002
8.909479e+002,2.579414e-002
8.928763e+002,2.575937e-002
8.948048e+002,2.624440e-002
8.967333e+002,2.661985e-002
8.986617e+002,2.683893e-002
9.005902e+002,2.729417e-002
9.025187e+002,2.802694e-002
9.044471e+002,2.868666e-002
9.063756e+002,2.916093e-002
9.083040e+002,2.972189e-002
9.102325e+002,3.067710e-002
9.121609e+002,3.206035e-002
9.140894e+002,3.367119e-002
9.160179e+002,3.539512e-002
9.179464e+002,3.722240e-002
9.198748e+002,3.913328e-002
9.218033e+002,4.122629e-002
9.237317e+002,4.362632e-002
9.256602e+002,4.624603e-002
9.275886e+002,4.891080e-002
9.295171e+002,5.159551e-002
9.314456e+002,5.447730e-002
9.333740e+002,5.782602e-002
9.353025e+002,6.170710e-002
9.372309e+002,6.587002e-002
9.391594e+002,7.011964e-002
9.410878e+002,7.449925e-002
9.430163e+002,7.904913e-002
9.449448e+002,8.384290e-002
9.468732e+002,8.921139e-002
9.488017e+002,9.547951e-002
9.507302e+002,1.025520e-001
9.526586e+002,1.099996e-001
9.545870e+002,1.173836e-001
9.565155e+002,1.243107e-001
9.584440e+002,1.301693e-001
9.603724e+002,1.339626e-001
9.623009e+002,1.349227e-001
9.642294e+002,1.335432e-001
9.661578e+002,1.314164e-001
9.680862e+002,1.300284e-001
9.700147e+002,1.303033e-001
9.719432e+002,1.327227e-001
9.738716e+002,1.371657e-001
9.758001e+002,1.430563e-001
9.777286e+002,1.500243e-001
9.796570e+002,1.582280e-001
9.815854e+002,1.678316e-001
9.835139e+002,1.783618e-001
9.854424e+002,1.892300e-001
9.873708e+002,2.005370e-001
9.892993e+002,2.124894e-001
9.912278e+002,2.248392e-001
9.931563e+002,2.374741e-001
9.950847e+002,2.505093e-001
9.970131e+002,2.638924e-001
9.989416e+002,2.777840e-001
1.000870e+003,2.925015e-001
1.002799e+003,3.073374e-001
1.004727e+003,3.208907e-001
1.006655e+003,3.331706e-001
1.008584e+003,3.454572e-001
1.010512e+003,3.581944e-001
1.012441e+003,3.709032e-001
1.014369e+003,3.830672e-001
1.016298e+003,3.939362e-001
1.018226e+003,4.030923e-001
1.020155e+003,4.109821e-001
1.022083e+003,4.178137e-001
1.024012e+003,4.231006e-001
1.025940e+003,4.267383e-001
1.027869e+003,4.297476e-001
1.029797e+003,4.333022e-001
1.031725e+003,4.369781e-001
1.033654e+003,4.392509e-001
1.035582e+003,4.397312e-001
1.037511e+003,4.393084e-001
1.039439e+003,4.387741e-001
1.041368e+003,4.383660e-001
1.043296e+003,4.376940e-001
1.045225e+003,4.362637e-001
1.047153e+003,4.344717e-001
1.049082e+003,4.332006e-001
1.051010e+003,4.325076e-001
1.052938e+003,4.317495e-001
1.054867e+003,4.306940e-001
1.056795e+003,4.293997e-001
1.058724e+003,4.276541e-001
1.060652e+003,4.253807e-001
1.062581e+003,4.227905e-001
1.064509e+003,4.201032e-001
1.066438e+003,4.177497e-001
1.068366e+003,4.159493e-001
1.070295e+003,4.141790e-001
1.072223e+003,4.120750e-001
1.074151e+003,4.098301e-001
1.076080e+003,4.071260e-001
1.078008e+003,4.034058e-001
1.079937e+003,3.993088e-001
1.081865e+003,3.960630e-001
1.083794e+003,3.939380e-001
1.085722e+003,3.924359e-001
1.087651e+003,3.910476e-001
1.089579e+003,3.894482e-001
1.091508e+003,3.875713e-001
1.093436e+003,3.852238e-001
1.095365e+003,3.818503e-001
1.097293e+003,3.773699e-001
1.099221e+003,3.725138e-001
1.101150e+003,3.678851e-001
1.103078e+003,3.633112e-001
1.105007e+003,3.581723e-001
1.106935e+003,3.519037e-001
1.108864e+003,3.443709e-001
1.110792e+003,3.360330e-001
1.112721e+003,3.272326e-001
1.114649e+003,3.177199e-001
1.116578e+003,3.072612e-001
1.118506e+003,2.958359e-001
1.120434e+003,2.836739e-001
1.122363e+003,2.714609e-001
1.124291e+003,2.595975e-001
1.126220e+003,2.477652e-001
1.128148e+003,2.358764e-001
1.130077e+003,2.244124e-001
1.132005e+003,2.136182e-001
1.133934e+003,2.032791e-001
1.135862e+003,1.932409e-001
1.137791e+003,1.837052e-001
1.139719e+003,1.750066e-001
1.141648e+003,1.670614e-001
1.143576e+003,1.593144e-001
1.145505e+003,1.514464e-001
1.147433e+003,1.436439e-001
1.149361e+003,1.361314e-001
1.151290e+003,1.289603e-001
1.153218e+003,1.221399e-001
1.155147e+003,1.156904e-001
1.157075e+003,1.096064e-001
1.159004e+003,1.038549e-001
1.160932e+003,9.836362e-002
1.162861e+003,9.308153e-002
1.164789e+003,8.820111e-002
1.166718e+003,8.397797e-002
1.168646e+003,8.017699e-002
1.170574e+003,7.632200e-002
1.172503e+003,7.244431e-002
1.174431e+003,6.893362e-002
1.176360e+003,6.590248e-002
1.178288e+003,6.314390e-002
1.180217e+003,6.042937e-002
1.182145e+003,5.767146e-002
1.184074e+003,5.501056e-002
1.186002e+003,5.265835e-002
1.187931e+003,5.053937e-002
1.189859e+003,4.843473e-002
1.191787e+003,4.643052e-002
1.193716e+003,4.473205e-002
1.195644e+003,4.317954e-002
1.197573e+003,4.146920e-002
1.199501e+003,3.971584e-002
1.201430e+003,3.829283e-002
1.203358e+003,3.721034e-002
1.205287e+003,3.609327e-002
1.207215e+003,3.478043e-002
1.209144e+003,3.358637e-002
1.211072e+003,3.285292e-002
1.213000e+003,3.245525e-002
1.214929e+003,3.189525e-002
1.216857e+003,3.095912e-002
1.218786e+003,3.000846e-002
1.220714e+003,2.935818e-002
1.222643e+003,2.881441e-002
1.224571e+003,2.804890e-002
1.226500e+003,2.712858e-002
1.228428e+003,2.646249e-002
1.230357e+003,2.610307e-002
1.232285e+003,2.556434e-002
1.234214e+003,2.467827e-002
1.236142e+003,2.392410e-002
1.238070e+003,2.359576e-002
1.239999e+003,2.329092e-002
1.241927e+003,2.254194e-002
1.243856e+003,2.152593e-002
1.245784e+003,2.073901e-002
1.247713e+003,2.023026e-002
1.249641e+003,1.957961e-002
1.251570e+003,1.856230e-002
1.253498e+003,1.748130e-002
1.255427e+003,1.670371e-002
1.257355e+003,1.615406e-002
1.259284e+003,1.549886e-002
1.261212e+003,1.465046e-002
1.263140e+003,1.384395e-002
1.265069e+003,1.323819e-002
1.266997e+003,1.271801e-002
1.268926e+003,1.216040e-002
1.270854e+003,1.165259e-002
1.272783e+003,1.129122e-002
1.274711e+003,1.093886e-002
1.276640e+003,1.039329e-002
1.278568e+003,9.712170e-003
1.280497e+003,9.130583e-003
1.282425e+003,8.689785e-003
1.284354e+003,8.239590e-003
1.286282e+003,7.745456e-003
1.288210e+003,7.295300e-003
1.290139e+003,6.931012e-003
1.292067e+003,6.656337e-003
1.293996e+003,6.435940e-003
1.295924e+003,6.163206e-003
1.297853e+003,5.839089e-003
1.299781e+003,5.680893e-003
1.301710e+003,5.770217e-003
1.303638e+003,5.834702e-003
1.305567e+003,5.692013e-003
1.307495e+003,5.532789e-003
1.309423e+003,5.599003e-003
1.311352e+003,6.076252e-003
1.313280e+003,6.539145e-003
1.315209e+003,6.781211e-003
1.317137e+003,7.078530e-003
1.319066e+003,7.585232e-003
1.320994e+003,7.815308e-003
1.322923e+003,7.547589e-003
1.324851e+003,7.177024e-003
1.326780e+003,6.973675e-003
1.328708e+003,6.879813e-003
1.330636e+003,6.789503e-003
1.332565e+003,6.653097e-003
1.334493e+003,6.609823e-003
1.336422e+003,7.127826e-003
1.338350e+003,8.462650e-003
1.340279e+003,9.733606e-003
1.342207e+003,1.011941e-002
1.344136e+003,1.026329e-002
1.346064e+003,1.086747e-002
1.347993e+003,1.185285e-002
1.349921e+003,1.291378e-002
1.351849e+003,1.401036e-002
1.353778e+003,1.523290e-002
1.355706e+003,1.641450e-002
1.357635e+003,1.733506e-002
1.359563e+003,1.855903e-002
1.361492e+003,2.101184e-002
1.363420e+003,2.391868e-002
1.365349e+003,2.579423e-002
1.367277e+003,2.728396e-002
1.369206e+003,2.935664e-002
1.371134e+003,3.220374e-002
1.373063e+003,3.627844e-002
1.374991e+003,4.120826e-002
1.376920e+003,4.551603e-002
1.378848e+003,4.934929e-002
1.380776e+003,5.351394e-002
1.382705e+003,5.787215e-002
1.384633e+003,6.249547e-002
1.386562e+003,6.790794e-002
1.388490e+003,7.325540e-002
1.390419e+003,7.738205e-002
1.392347e+003,8.142982e-002
1.394276e+003,8.718573e-002
1.396204e+003,9.447385e-002
1.398133e+003,1.015598e-001
1.400061e+003,1.074086e-001
1.401990e+003,1.122444e-001
1.403918e+003,1.172290e-001
1.405846e+003,1.226118e-001
1.407775e+003,1.274233e-001
1.409703e+003,1.314411e-001
1.411632e+003,1.346733e-001
1.413560e+003,1.368136e-001
1.415489e+003,1.381520e-001
1.417417e+003,1.390049e-001
1.419346e+003,1.388705e-001
1.421274e+003,1.376853e-001
1.423203e+003,1.358525e-001
1.425131e+003,1.333057e-001
1.427059e+003,1.302969e-001
1.428988e+003,1.273599e-001
1.430916e+003,1.249213e-001
1.432845e+003,1.232581e-001
1.434773e+003,1.225190e-001
1.436702e+003,1.226399e-001
1.438630e+003,1.228970e-001
1.440559e+003,1.229892e-001
1.442487e+003,1.233777e-001
1.444416e+003,1.245096e-001
1.446344e+003,1.266039e-001
1.448272e+003,1.292400e-001
1.450201e+003,1.314348e-001
1.452129e+003,1.329034e-001
1.454058e+003,1.341672e-001
1.455986e+003,1.359461e-001
1.457915e+003,1.372464e-001
1.459843e+003,1.364793e-001
1.461772e+003,1.351939e-001
1.463700e+003,1.345193e-001
1.465629e+003,1.341657e-001
1.467557e+003,1.333837e-001
1.469485e+003,1.323511e-001
1.471414e+003,1.316316e-001
1.473342e+003,1.311799e-001
1.475271e+003,1.299163e-001
1.477199e+003,1.277051e-001
1.479128e+003,1.252967e-001
1.481056e+003,1.230323e-001
1.482985e+003,1.209018e-001
1.484913e+003,1.189671e-001
1.486842e+003,1.173363e-001
1.488770e+003,1.156740e-001
1.490699e+003,1.133072e-001
1.492627e+003,1.106606e-001
1.494556e+003,1.084118e-001
1.496484e+003,1.064759e-001
1.498412e+003,1.040751e-001
1.500341e+003,1.009968e-001
1.502269e+003,9.783462e-002
1.504198e+003,9.491333e-002
1.506126e+003,9.247705e-002
1.508055e+003,9.036066e-002
1.509983e+003,8.739118e-002
1.511912e+003,8.381643e-002
1.513840e+003,8.034014e-002
1.515769e+003,7.720923e-002
1.517697e+003,7.435217e-002
1.519625e+003,7.185011e-002
1.521554e+003,6.976416e-002
1.523482e+003,6.781196e-002
1.525411e+003,6.578235e-002
1.527339e+003,6.354076e-002
1.529268e+003,6.120662e-002
1.531196e+003,5.946010e-002
1.533125e+003,5.866130e-002
1.535053e+003,5.768240e-002
1.536982e+003,5.596985e-002
1.538910e+003,5.545839e-002
1.540839e+003,5.884999e-002
1.542767e+003,6.216300e-002
1.544695e+003,6.214920e-002
1.546624e+003,6.084438e-002
1.548552e+003,5.965126e-002
1.550481e+003,5.872495e-002
1.552409e+003,5.758924e-002
1.554338e+003,5.624178e-002
1.556266e+003,5.578153e-002
1.558195e+003,5.825145e-002
1.560123e+003,6.048793e-002
1.562052e+003,5.959390e-002
1.563980e+003,5.826384e-002
1.565908e+003,5.767169e-002
1.567837e+003,5.805708e-002
1.569765e+003,5.868841e-002
1.571694e+003,5.811693e-002
1.573622e+003,5.724039e-002
1.575551e+003,5.804984e-002
1.577479e+003,5.930941e-002
1.579408e+003,5.875287e-002
1.581336e+003,5.760852e-002
1.583265e+003,5.703064e-002
1.585193e+003,5.691543e-002
1.587121e+003,5.698365e-002
1.589050e+003,5.728970e-002
1.590978e+003,5.789741e-002
1.592907e+003,5.876981e-002
1.594835e+003,5.968869e-002
1.596764e+003,6.027009e-002
1.598692e+003,6.059006e-002
1.600621e+003,6.118489e-002
1.602549e+003,6.212689e-002
1.604478e+003,6.299986e-002
1.606406e+003,6.382510e-002
1.608335e+003,6.471380e-002
1.610263e+003,6.505255e-002
1.612191e+003,6.459430e-002
1.614120e+003,6.450265e-002
1.616048e+003,6.604559e-002
1.617977e+003,6.764180e-002
1.619905e+003,6.766066e-002
1.621834e+003,6.767713e-002
1.623762e+003,6.856988e-002
1.625691e+003,6.936175e-002
1.627619e+003,6.956484e-002
1.629548e+003,6.909428e-002
1.631476e+003,6.802510e-002
1.633405e+003,6.758012e-002
1.635333e+003,6.932469e-002
1.637261e+003,7.101721e-002
1.639190e+003,6.997821e-002
1.641118e+003,6.771782e-002
1.643047e+003,6.562854e-002
1.644975e+003,6.476027e-002
1.646904e+003,6.516165e-002
1.648832e+003,6.437739e-002
1.650761e+003,6.245156e-002
1.652689e+003,6.200968e-002
1.654618e+003,6.183893e-002
1.656546e+003,5.928452e-002
1.658474e+003,5.603426e-002
1.660403e+003,5.364273e-002
1.662331e+003,5.227790e-002
1.664260e+003,5.051498e-002
1.666188e+003,4.805373e-002
1.668117e+003,4.632857e-002
1.670045e+003,4.579051e-002
1.671974e+003,4.484238e-002
1.673902e+003,4.319246e-002
1.675831e+003,4.139423e-002
1.677759e+003,3.929382e-002
1.679688e+003,3.703367e-002
1.681616e+003,3.540392e-002
1.683544e+003,3.529762e-002
1.685473e+003,3.521756e-002
1.687401e+003,3.359949e-002
1.689330e+003,3.130184e-002
1.691258e+003,2.868634e-002
1.693187e+003,2.608236e-002
1.695115e+003,2.452004e-002
1.697044e+003,2.479864e-002
1.698972e+003,2.593194e-002
1.700901e+003,2.598687e-002
1.702829e+003,2.471429e-002
1.704757e+003,2.334113e-002
1.706686e+003,2.213755e-002
1.708614e+003,2.039160e-002
1.710543e+003,1.818004e-002
1.712471e+003,1.628805e-002
1.714400e+003,1.579509e-002
1.716328e+003,1.756868e-002
1.718257e+003,1.893741e-002
1.720185e+003,1.765409e-002
1.722114e+003,1.568579e-002
1.724042e+003,1.418491e-002
1.725971e+003,1.293967e-002
1.727899e+003,1.174546e-002
1.729827e+003,1.087729e-002
1.731756e+003,1.104260e-002
1.733684e+003,1.256373e-002
1.735613e+003,1.318746e-002
1.737541e+003,1.217924e-002
1.739470e+003,1.125908e-002
1.741398e+003,1.099130e-002
1.743327e+003,1.064786e-002
1.745255e+003,1.003721e-002
1.747184e+003,9.761341e-003
1.749112e+003,1.030796e-002
1.751041e+003,1.065873e-002
1.752969e+003,9.709548e-003
1.754897e+003,8.303435e-003
1.756826e+003,7.349408e-003
1.758754e+003,6.875176e-003
1.760683e+003,6.842700e-003
1.762611e+003,6.844991e-003
1.764540e+003,6.101581e-003
1.766468e+003,4.981746e-003
1.768397e+003,4.409387e-003
1.770325e+003,4.999459e-003
1.772254e+003,6.467966e-003
1.774182e+003,6.930731e-003
1.776110e+003,5.943750e-003
1.778039e+003,4.908278e-003
1.779967e+003,4.628469e-003
1.781896e+003,4.689291e-003
1.783824e+003,4.490436e-003
1.785753e+003,3.893350e-003
1.787681e+003,3.051333e-003
1.789610e+003,2.766302e-003
1.791538e+003,3.855297e-003
1.793467e+003,4.987760e-003
1.795395e+003,4.619661e-003
1.797323e+003,3.749092e-003
1.799252e+003,3.526022e-003
1.801180e+003,3.690634e-003
1.803109e+003,3.358402e-003
1.805037e+003,2.618495e-003
1.806966e+003,2.132545e-003
1.808894e+003,2.273915e-003
1.810823e+003,2.749295e-003
1.812751e+003,2.805208e-003
1.814680e+003,2.360508e-003
1.816608e+003,1.906877e-003
1.818536e+003,1.526576e-003
1.820465e+003,1.079288e-003
1.822393e+003,8.521164e-004
1.824322e+003,1.063600e-003
1.826250e+003,1.421414e-003
1.828179e+003,2.039224e-003
1.830107e+003,2.917826e-003
1.832036e+003,3.023972e-003
1.833964e+003,2.369625e-003
1.835893e+003,1.864952e-003
1.837821e+003,1.485856e-003
1.839750e+003,8.274973e-004
1.841678e+003,5.948548e-004
1.843607e+003,1.740065e-003
1.845535e+003,3.129742e-003
1.847463e+003,3.170084e-003
1.849392e+003,2.480410e-003
1.851320e+003,1.962907e-003
1.853249e+003,1.723528e-003
1.855177e+003,1.596218e-003
1.857106e+003,1.593087e-003
1.859034e+003,1.718916e-003
1.860963e+003,1.680411e-003
1.862891e+003,1.282533e-003
1.864820e+003,9.911098e-004
1.866748e+003,1.728740e-003
1.868677e+003,3.349524e-003
1.870605e+003,3.948620e-003
1.872533e+003,3.159806e-003
1.874462e+003,2.243596e-003
1.876390e+003,1.855948e-003
1.878319e+003,1.844671e-003
1.880247e+003,1.954395e-003
1.882176e+003,2.096597e-003
1.884104e+003,2.155198e-003
1.886033e+003,2.146737e-003
1.887961e+003,2.424503e-003
1.889890e+003,2.919682e-003
1.891818e+003,3.037040e-003
1.893746e+003,2.930698e-003
1.895675e+003,3.051904e-003
1.897603e+003,3.188780e-003
1.899532e+003,2.965151e-003
1.901460e+003,2.712246e-003
1.903389e+003,2.475292e-003
1.905317e+003,2.280860e-003
1.907246e+003,2.379714e-003
1.909174e+003,2.767743e-003
1.911103e+003,2.862515e-003
1.913031e+003,2.389462e-003
1.914959e+003,1.935980e-003
1.916888e+003,2.070399e-003
1.918816e+003,2.456209e-003
1.920745e+003,2.624911e-003
1.922673e+003,2.722219e-003
1.924602e+003,2.661736e-003
1.926530e+003,2.255274e-003
1.928459e+003,1.772444e-003
1.930387e+003,1.450578e-003
1.932316e+003,1.263252e-003
1.934244e+003,1.127029e-003
1.936172e+003,9.076670e-004
1.938101e+003,5.640227e-004
1.940029e+003,4.548181e-004
1.941958e+003,9.106677e-004
1.943886e+003,1.418157e-003
1.945815e+003,1.358599e-003
1.947743e+003,9.552995e-004
1.949672e+003,6.197591e-004
1.951600e+003,4.875497e-004
1.953529e+003,5.089610e-004
1.955457e+003,5.823849e-004
1.957386e+003,6.729839e-004
1.959314e+003,7.092091e-004
1.961242e+003,5.465285e-004
1.963171e+003,2.945736e-004
1.965099e+003,3.358999e-004
1.967028e+003,6.921894e-004
1.968956e+003,8.482190e-004
1.970885e+003,6.319357e-004
1.972813e+003,3.760720e-004
1.974742e+003,2.747220e-004
1.976670e+003,3.079872e-004
1.978599e+003,4.344266e-004
1.980527e+003,5.610797e-004
1.982456e+003,5.617556e-004
1.984384e+003,4.396711e-004
1.986313e+003,3.447325e-004
1.988241e+003,3.997688e-004
1.990169e+003,6.373131e-004
1.992098e+003,8.726243e-004
1.994026e+003,7.573690e-004
1.995955e+003,3.473114e-004
1.997883e+003,-4.178379e-006
1.999812e+003,-2.252944e-004
2.001740e+003,-4.213029e-004
2.003669e+003,-5.520291e-004
2.005597e+003,-5.617442e-004
2.007526e+003,-5.677619e-004
2.009454e+003,-7.398722e-004
2.011382e+003,-1.084578e-003
2.013311e+003,-1.404588e-003
2.015239e+003,-1.448771e-003
2.017168e+003,-1.244867e-003
2.019096e+003,-1.170456e-003
2.021025e+003,-1.402281e-003
2.022953e+003,-1.711858e-003
2.024882e+003,-1.891065e-003
2.026810e+003,-1.963433e-003
2.028739e+003,-2.024078e-003
2.030667e+003,-2.084845e-003
2.032595e+003,-2.135139e-003
2.034524e+003,-2.228900e-003
2.036452e+003,-2.350603e-003
2.038381e+003,-2.336188e-003
2.040309e+003,-2.115448e-003
2.042238e+003,-1.883935e-003
2.044166e+003,-1.845294e-003
2.046095e+003,-1.949379e-003
2.048023e+003,-2.016141e-003
2.049952e+003,-1.946728e-003
2.051880e+003,-1.797996e-003
2.053809e+003,-1.726057e-003
2.055737e+003,-1.789414e-003
2.057666e+003,-1.846098e-003
2.059594e+003,-1.770823e-003
2.061522e+003,-1.611571e-003
2.063451e+003,-1.428852e-003
2.065379e+003,-1.250279e-003
2.067308e+003,-1.138180e-003
2.069236e+003,-1.094476e-003
2.071165e+003,-1.074588e-003
2.073093e+003,-1.061522e-003
2.075021e+003,-1.010770e-003
2.076950e+003,-8.852852e-004
2.078878e+003,-7.294666e-004
2.080807e+003,-6.279955e-004
2.082735e+003,-6.303405e-004
2.084664e+003,-6.806003e-004
2.086592e+003,-6.708130e-004
2.088521e+003,-6.247628e-004
2.090449e+003,-6.641983e-004
2.092378e+003,-7.682771e-004
2.094306e+003,-8.221800e-004
2.096235e+003,-8.337628e-004
2.098163e+003,-8.558843e-004
2.100092e+003,-8.659300e-004
2.102020e+003,-8.468616e-004
2.103948e+003,-8.244375e-004
2.105877e+003,-8.420877e-004
2.107805e+003,-9.474461e-004
2.109734e+003,-1.110911e-003
2.111662e+003,-1.191531e-003
2.113591e+003,-1.099357e-003
2.115519e+003,-9.548559e-004
2.117448e+003,-9.330532e-004
2.119376e+003,-1.000070e-003
2.121304e+003,-9.858075e-004
2.123233e+003,-8.555441e-004
2.125161e+003,-7.539634e-004
2.127090e+003,-7.848276e-004
2.129018e+003,-8.874473e-004
2.130947e+003,-9.690290e-004
2.132875e+003,-1.021523e-003
2.134804e+003,-1.067574e-003
2.136732e+003,-1.080268e-003
2.138661e+003,-1.012673e-003
2.140589e+003,-8.840796e-004
2.142518e+003,-7.934573e-004
2.144446e+003,-8.352373e-004
2.146375e+003,-1.008524e-003
2.148303e+003,-1.230515e-003
2.150231e+003,-1.410479e-003
2.152160e+003,-1.504442e-003
2.154088e+003,-1.543059e-003
2.156017e+003,-1.582903e-003
2.157945e+003,-1.617993e-003
2.159874e+003,-1.598159e-003
2.161802e+003,-1.550194e-003
2.163731e+003,-1.578766e-003
2.165659e+003,-1.695562e-003
2.167588e+003,-1.784860e-003
2.169516e+003,-1.805939e-003
2.171445e+003,-1.873732e-003
2.173373e+003,-2.060537e-003
2.175302e+003,-2.273180e-003
2.177230e+003,-2.394926e-003
2.179158e+003,-2.414641e-003
2.181087e+003,-2.370253e-003
2.183015e+003,-2.278784e-003
2.184944e+003,-2.203220e-003
2.186872e+003,-2.267795e-003
2.188801e+003,-2.480032e-003
2.190729e+003,-2.691233e-003
2.192657e+003,-2.796206e-003
2.194586e+003,-2.802185e-003
2.196514e+003,-2.772343e-003
2.198443e+003,-2.801741e-003
2.200371e+003,-2.902484e-003
2.202300e+003,-2.957959e-003
2.204228e+003,-2.912476e-003
2.206157e+003,-2.854033e-003
2.208085e+003,-2.857427e-003
2.210014e+003,-2.872170e-003
2.211942e+003,-2.795984e-003
2.213871e+003,-2.627487e-003
2.215799e+003,-2.471781e-003
2.217728e+003,-2.389989e-003
2.219656e+003,-2.347405e-003
2.221584e+003,-2.300302e-003
2.223513e+003,-2.262534e-003
2.225441e+003,-2.266761e-003
2.227370e+003,-2.281104e-003
2.229298e+003,-2.255954e-003
2.231227e+003,-2.220723e-003
2.233155e+003,-2.197600e-003
2.235084e+003,-2.117726e-003
2.237012e+003,-1.920061e-003
2.238940e+003,-1.641443e-003
2.240869e+003,-1.419399e-003
2.242797e+003,-1.375476e-003
2.244726e+003,-1.446951e-003
2.246654e+003,-1.465780e-003
2.248583e+003,-1.364687e-003
2.250511e+003,-1.198352e-003
2.252440e+003,-1.056338e-003
2.254368e+003,-9.690421e-004
2.256297e+003,-8.836626e-004
2.258225e+003,-7.727325e-004
2.260154e+003,-6.790380e-004
2.262082e+003,-6.126021e-004
2.264010e+003,-5.085121e-004
2.265939e+003,-3.394603e-004
2.267867e+003,-1.952066e-004
2.269796e+003,-1.538750e-004
2.271724e+003,-1.298492e-004
2.273653e+003,5.178386e-006
2.275581e+003,2.072759e-004
2.277510e+003,3.185563e-004
2.279438e+003,2.576015e-004
2.281367e+003,6.744568e-005
2.283295e+003,-1.188298e-004
2.285224e+003,-1.607207e-004
2.287152e+003,-2.874690e-005
2.289081e+003,2.169451e-004
2.291009e+003,5.735192e-004
2.292938e+003,1.071802e-003
2.294866e+003,1.614100e-003
2.296794e+003,2.012774e-003
2.298723e+003,2.176152e-003
2.300651e+003,2.148994e-003
2.302580e+003,2.071083e-003
2.304508e+003,2.137572e-003
2.306437e+003,2.452224e-003
2.308365e+003,2.946538e-003
2.310293e+003,3.483189e-003
2.312222e+003,3.820727e-003
2.314150e+003,3.710139e-003
2.316079e+003,3.345639e-003
2.318007e+003,3.198836e-003
2.319936e+003,3.333878e-003
2.321864e+003,3.524721e-003
2.323793e+003,3.835364e-003
2.325721e+003,4.132387e-003
2.327650e+003,3.828947e-003
2.329578e+003,3.136020e-003
2.331507e+003,2.922927e-003
2.333435e+003,3.005999e-003
2.335364e+003,2.484809e-003
2.337292e+003,1.244755e-003
2.339220e+003,4.422606e-004
2.341149e+003,1.503447e-003
2.343077e+003,4.228551e-003
2.345006e+003,6.336425e-003
2.346934e+003,6.453051e-003
2.348863e+003,5.031192e-003
2.350791e+003,2.902365e-003
2.352719e+003,5.372385e-004
2.354648e+003,-2.846758e-003
2.356576e+003,-8.534134e-003
2.358505e+003,-1.525849e-002
2.360433e+003,-2.061121e-002
2.362362e+003,-2.083235e-002
2.364290e+003,-1.335233e-002
2.366219e+003,-2.868379e-003
2.368147e+003,4.485539e-003
2.370076e+003,7.908916e-003
2.372004e+003,9.296185e-003
2.373933e+003,9.665889e-003
2.375861e+003,9.249979e-003
2.377790e+003,8.393652e-003
2.379718e+003,7.463384e-003
2.381646e+003,6.515247e-003
2.383575e+003,5.467996e-003
2.385503e+003,4.426198e-003
2.387432e+003,3.631516e-003
2.389360e+003,3.193813e-003
2.391289e+003,3.014166e-003
2.393217e+003,2.904044e-003
2.395146e+003,2.760387e-003
2.397074e+003,2.690414e-003
2.399003e+003,2.810412e-003
2.400931e+003,2.992866e-003
2.402860e+003,3.075566e-003
2.404788e+003,3.089560e-003
2.406717e+003,3.106234e-003
2.408645e+003,3.128127e-003
2.410573e+003,3.154369e-003
2.412502e+003,3.173785e-003
2.414430e+003,3.146994e-003
2.416359e+003,3.082021e-003
2.418287e+003,3.043324e-003
2.420216e+003,3.043250e-003
2.422144e+003,3.041741e-003
2.424073e+003,3.054171e-003
2.426001e+003,3.113687e-003
2.427929e+003,3.161561e-003
2.429858e+003,3.123678e-003
2.431786e+003,3.042571e-003
2.433715e+003,2.993226e-003
2.435643e+003,2.948663e-003
2.437572e+003,2.869485e-003
2.439500e+003,2.797323e-003
2.441429e+003,2.746092e-003
2.443357e+003,2.663113e-003
2.445286e+003,2.542149e-003
2.447214e+003,2.445560e-003
2.449143e+003,2.424522e-003
2.451071e+003,2.457606e-003
2.453000e+003,2.475517e-003
2.454928e+003,2.450678e-003
2.456856e+003,2.416458e-003
2.458785e+003,2.428637e-003
2.460713e+003,2.525080e-003
2.462642e+003,2.662601e-003
2.464570e+003,2.743598e-003
2.466499e+003,2.739827e-003
2.468427e+003,2.695120e-003
2.470355e+003,2.625193e-003
2.472284e+003,2.519152e-003
2.474212e+003,2.400622e-003
2.476141e+003,2.331130e-003
2.478069e+003,2.343284e-003
2.479998e+003,2.367927e-003
2.481926e+003,2.330164e-003
2.483855e+003,2.296123e-003
2.485783e+003,2.331430e-003
2.487712e+003,2.324424e-003
2.489640e+003,2.180021e-003
2.491569e+003,2.005894e-003
2.493497e+003,1.918391e-003
2.495426e+003,1.880639e-003
2.497354e+003,1.893366e-003
2.499282e+003,1.906825e-003
2.501211e+003,1.986987e-003
2.503139e+003,2.166048e-003
2.505068e+003,2.382352e-003
2.506996e+003,2.537857e-003
2.508925e+003,2.621329e-003
2.510853e+003,2.688951e-003
2.512782e+003,2.761952e-003
2.514710e+003,2.842282e-003
2.516639e+003,2.939755e-003
2.518567e+003,3.036547e-003
2.520496e+003,3.122056e-003
2.522424e+003,3.218492e-003
2.524353e+003,3.319448e-003
2.526281e+003,3.410805e-003
2.528209e+003,3.550565e-003
2.530138e+003,3.769951e-003
2.532066e+003,3.952029e-003
2.533995e+003,3.999949e-003
2.535923e+003,4.000480e-003
2.537852e+003,4.065317e-003
2.539780e+003,4.164474e-003
2.541708e+003,4.200438e-003
2.543637e+003,4.163501e-003
2.545565e+003,4.138018e-003
2.547494e+003,4.170121e-003
2.549422e+003,4.248200e-003
2.551351e+003,4.351616e-003
2.553279e+003,4.433200e-003
2.555208e+003,4.494340e-003
2.557136e+003,4.591494e-003
2.559065e+003,4.676366e-003
2.560993e+003,4.683903e-003
2.562922e+003,4.710408e-003
2.564850e+003,4.865721e-003
2.566779e+003,5.105678e-003
2.568707e+003,5.319191e-003
2.570635e+003,5.449615e-003
2.572564e+003,5.496728e-003
2.574492e+003,5.482518e-003
2.576421e+003,5.460984e-003
2.578349e+003,5.497227e-003
2.580278e+003,5.605571e-003
2.582206e+003,5.782387e-003
2.584135e+003,6.048787e-003
2.586063e+003,6.356503e-003
2.587991e+003,6.579311e-003
2.589920e+003,6.691942e-003
2.591848e+003,6.802040e-003
2.593777e+003,6.944421e-003
2.595705e+003,7.037678e-003
2.597634e+003,7.117026e-003
2.599562e+003,7.352534e-003
2.601491e+003,7.758917e-003
2.603419e+003,8.142996e-003
2.605348e+003,8.352952e-003
2.607276e+003,8.416625e-003
2.609205e+003,8.482891e-003
2.611133e+003,8.657458e-003
2.613062e+003,8.879089e-003
2.614990e+003,9.050104e-003
2.616918e+003,9.247254e-003
2.618847e+003,9.617984e-003
2.620775e+003,1.008444e-002
2.622704e+003,1.037286e-002
2.624632e+003,1.041143e-002
2.626561e+003,1.046285e-002
2.628489e+003,1.071233e-002
2.630418e+003,1.101016e-002
2.632346e+003,1.120705e-002
2.634275e+003,1.139869e-002
2.636203e+003,1.168288e-002
2.638132e+003,1.199974e-002
2.640060e+003,1.226130e-002
2.641989e+003,1.245625e-002
2.643917e+003,1.264187e-002
2.645845e+003,1.285288e-002
2.647774e+003,1.303898e-002
2.649702e+003,1.317947e-002
2.651631e+003,1.338403e-002
2.653559e+003,1.373278e-002
2.655488e+003,1.412279e-002
2.657416e+003,1.442737e-002
2.659344e+003,1.466394e-002
2.661273e+003,1.490346e-002
2.663201e+003,1.514504e-002
2.665130e+003,1.535651e-002
2.667058e+003,1.558548e-002
2.668987e+003,1.592026e-002
2.670915e+003,1.637716e-002
2.672844e+003,1.692952e-002
2.674772e+003,1.753423e-002
2.676701e+003,1.803745e-002
2.678629e+003,1.824724e-002
2.680558e+003,1.822848e-002
2.682486e+003,1.828162e-002
2.684415e+003,1.853134e-002
2.686343e+003,1.883292e-002
2.688271e+003,1.907112e-002
2.690200e+003,1.930148e-002
2.692128e+003,1.962674e-002
2.694057e+003,2.002386e-002
2.695985e+003,2.035497e-002
2.697914e+003,2.058544e-002
2.699842e+003,2.084242e-002
2.701771e+003,2.117582e-002
2.703699e+003,2.146706e-002
2.705627e+003,2.167863e-002
2.707556e+003,2.193272e-002
2.709484e+003,2.226511e-002
2.711413e+003,2.259315e-002
2.713341e+003,2.292432e-002
2.715270e+003,2.334218e-002
2.717198e+003,2.384050e-002
2.719127e+003,2.432567e-002
2.721055e+003,2.470371e-002
2.722984e+003,2.492294e-002
2.724912e+003,2.502883e-002
2.726841e+003,2.517389e-002
2.728769e+003,2.546760e-002
2.730698e+003,2.584303e-002
2.732626e+003,2.617567e-002
2.734554e+003,2.646933e-002
2.736483e+003,2.680717e-002
2.738411e+003,2.715534e-002
2.740340e+003,2.739972e-002
2.742268e+003,2.763676e-002
2.744197e+003,2.810842e-002
2.746125e+003,2.875477e-002
2.748054e+003,2.924011e-002
2.749982e+003,2.946659e-002
2.751911e+003,2.966966e-002
2.753839e+003,2.999069e-002
2.755768e+003,3.029231e-002
2.757696e+003,3.043710e-002
2.759624e+003,3.051663e-002
2.761553e+003,3.072818e-002
2.763481e+003,3.111517e-002
2.765410e+003,3.153580e-002
2.767338e+003,3.193687e-002
2.769267e+003,3.244313e-002
2.771195e+003,3.300441e-002
2.773124e+003,3.331555e-002
2.775052e+003,3.329031e-002
2.776980e+003,3.322158e-002
2.778909e+003,3.339244e-002
2.780837e+003,3.381930e-002
2.782766e+003,3.436850e-002
2.784694e+003,3.494386e-002
2.786623e+003,3.548045e-002
2.788551e+003,3.590612e-002
2.790480e+003,3.624693e-002
2.792408e+003,3.660379e-002
2.794337e+003,3.695827e-002
2.796265e+003,3.716838e-002
2.798194e+003,3.719556e-002
2.800122e+003,3.719293e-002
2.802051e+003,3.733779e-002
2.803979e+003,3.772152e-002
2.805907e+003,3.829829e-002
2.807836e+003,3.883114e-002
2.809764e+003,3.913659e-002
2.811693e+003,3.933421e-002
2.813621e+003,3.961777e-002
2.815550e+003,4.001292e-002
2.817478e+003,4.048172e-002
2.819406e+003,4.099801e-002
2.821335e+003,4.150841e-002
2.823263e+003,4.199912e-002
2.825192e+003,4.251171e-002
2.827120e+003,4.302245e-002
2.829049e+003,4.351183e-002
2.830977e+003,4.412824e-002
2.832906e+003,4.500972e-002
2.834834e+003,4.597410e-002
2.836763e+003,4.664810e-002
2.838691e+003,4.698740e-002
2.840620e+003,4.738767e-002
2.842548e+003,4.813683e-002
2.844477e+003,4.911048e-002
2.846405e+003,5.006136e-002
2.848333e+003,5.090334e-002
2.850262e+003,5.169772e-002
2.852190e+003,5.245632e-002
2.854119e+003,5.306891e-002
2.856047e+003,5.344727e-002
2.857976e+003,5.355878e-002
2.859904e+003,5.342494e-002
2.861833e+003,5.319358e-002
2.863761e+003,5.305335e-002
2.865690e+003,5.317033e-002
2.867618e+003,5.364060e-002
2.869547e+003,5.426379e-002
2.871475e+003,5.462751e-002
2.873404e+003,5.457478e-002
2.875332e+003,5.434860e-002
2.877260e+003,5.426386e-002
2.879189e+003,5.437682e-002
2.881117e+003,5.453866e-002
2.883046e+003,5.469608e-002
2.884974e+003,5.490769e-002
2.886903e+003,5.517989e-002
2.888831e+003,5.559098e-002
2.890760e+003,5.629233e-002
2.892688e+003,5.712022e-002
2.894616e+003,5.768195e-002
2.896545e+003,5.798573e-002
2.898473e+003,5.844403e-002
2.900402e+003,5.921016e-002
2.902330e+003,5.998287e-002
2.904259e+003,6.054938e-002
2.906187e+003,6.115486e-002
2.908116e+003,6.210453e-002
2.910044e+003,6.330085e-002
2.911973e+003,6.438947e-002
2.913901e+003,6.514358e-002
2.915830e+003,6.561379e-002
2.917758e+003,6.602501e-002
2.919687e+003,6.656690e-002
2.921615e+003,6.727305e-002
2.923543e+003,6.810940e-002
2.925472e+003,6.898575e-002
2.927400e+003,6.955973e-002
2.929329e+003,6.946174e-002
2.931257e+003,6.886540e-002
2.933186e+003,6.833532e-002
2.935114e+003,6.813266e-002
2.937042e+003,6.812591e-002
2.938971e+003,6.821218e-002
2.940899e+003,6.839658e-002
2.942828e+003,6.855443e-002
2.944756e+003,6.848305e-002
2.946685e+003,6.826008e-002
2.948613e+003,6.819221e-002
2.950542e+003,6.830782e-002
2.952470e+003,6.840603e-002
2.954399e+003,6.852502e-002
2.956327e+003,6.879198e-002
2.958256e+003,6.911612e-002
2.960184e+003,6.936927e-002
2.962113e+003,6.949569e-002
2.964041e+003,6.944552e-002
2.965969e+003,6.929961e-002
2.967898e+003,6.928275e-002
2.969826e+003,6.948738e-002
2.971755e+003,6.976680e-002
2.973683e+003,6.996326e-002
2.975612e+003,7.010348e-002
2.977540e+003,7.022860e-002
2.979469e+003,7.019977e-002
2.981397e+003,7.000132e-002
2.983326e+003,6.990597e-002
2.985254e+003,7.009138e-002
2.987183e+003,7.049871e-002
2.989111e+003,7.091805e-002
2.991040e+003,7.109877e-002
2.992968e+003,7.109207e-002
2.994896e+003,7.110962e-002
2.996825e+003,7.111694e-002
2.998753e+003,7.109517e-002
3.000682e+003,7.115364e-002
3.002610e+003,7.127839e-002
3.004539e+003,7.153105e-002
3.006467e+003,7.209270e-002
3.008396e+003,7.286558e-002
3.010324e+003,7.351170e-002
3.012252e+003,7.383985e-002
3.014181e+003,7.388003e-002
3.016109e+003,7.373975e-002
3.018038e+003,7.358021e-002
3.019966e+003,7.354193e-002
3.021895e+003,7.355041e-002
3.023823e+003,7.346556e-002
3.025752e+003,7.342823e-002
3.027680e+003,7.373945e-002
3.029609e+003,7.445732e-002
3.031537e+003,7.521358e-002
3.033466e+003,7.557862e-002
3.035394e+003,7.568627e-002
3.037323e+003,7.595589e-002
3.039251e+003,7.637074e-002
3.041179e+003,7.663760e-002
3.043108e+003,7.669099e-002
3.045036e+003,7.672967e-002
3.046965e+003,7.694357e-002
3.048893e+003,7.727783e-002
3.050822e+003,7.759015e-002
3.052750e+003,7.784947e-002
3.054678e+003,7.798520e-002
3.056607e+003,7.798620e-002
3.058535e+003,7.810986e-002
3.060464e+003,7.855091e-002
3.062392e+003,7.917076e-002
3.064321e+003,7.970367e-002
3.066249e+003,7.994967e-002
3.068178e+003,7.988754e-002
3.070106e+003,7.982465e-002
3.072035e+003,8.021387e-002
3.073963e+003,8.110160e-002
3.075892e+003,8.200160e-002
3.077820e+003,8.252757e-002
3.079749e+003,8.278511e-002
3.081677e+003,8.295580e-002
3.083605e+003,8.302950e-002
3.085534e+003,8.306730e-002
3.087462e+003,8.313494e-002
3.089391e+003,8.305588e-002
3.091319e+003,8.277383e-002
3.093248e+003,8.265430e-002
3.095176e+003,8.296530e-002
3.097105e+003,8.343084e-002
3.099033e+003,8.367128e-002
3.100962e+003,8.377187e-002
3.102890e+003,8.409567e-002
3.104819e+003,8.469681e-002
3.106747e+003,8.525620e-002
3.108675e+003,8.562672e-002
3.110604e+003,8.606876e-002
3.112532e+003,8.677996e-002
3.114461e+003,8.754526e-002
3.116389e+003,8.796811e-002
3.118318e+003,8.786929e-002
3.120246e+003,8.747271e-002
3.122175e+003,8.718682e-002
3.124103e+003,8.720745e-002
3.126031e+003,8.742593e-002
3.127960e+003,8.760876e-002
3.129888e+003,8.764652e-002
3.131817e+003,8.777852e-002
3.133745e+003,8.834027e-002
3.135674e+003,8.916888e-002
3.137602e+003,8.972052e-002
3.139531e+003,8.980899e-002
3.141459e+003,8.976261e-002
3.143388e+003,8.995062e-002
3.145316e+003,9.051169e-002
3.147245e+003,9.135619e-002
3.149173e+003,9.219807e-002
3.151102e+003,9.270258e-002
3.153030e+003,9.272932e-002
3.154958e+003,9.244715e-002
3.156887e+003,9.217094e-002
3.158815e+003,9.215134e-002
3.160744e+003,9.249886e-002
3.162672e+003,9.309475e-002
3.164601e+003,9.363473e-002
3.166529e+003,9.391887e-002
3.168458e+003,9.401529e-002
3.170386e+003,9.413832e-002
3.172314e+003,9.443365e-002
3.174243e+003,9.486087e-002
3.176171e+003,9.530804e-002
3.178100e+003,9.575440e-002
3.180028e+003,9.622592e-002
3.181957e+003,9.673040e-002
3.183885e+003,9.729309e-002
3.185814e+003,9.789038e-002
3.187742e+003,9.837139e-002
3.189671e+003,9.858367e-002
3.191599e+003,9.858324e-002
3.193528e+003,9.865929e-002
3.195456e+003,9.908958e-002
3.197385e+003,9.983754e-002
3.199313e+003,1.005143e-001
3.201241e+003,1.008298e-001
3.203170e+003,1.009600e-001
3.205098e+003,1.011759e-001
3.207027e+003,1.014947e-001
3.208955e+003,1.018799e-001
3.210884e+003,1.023167e-001
3.212812e+003,1.027966e-001
3.214741e+003,1.033774e-001
3.216669e+003,1.039606e-001
3.218598e+003,1.043276e-001
3.220526e+003,1.045257e-001
3.222455e+003,1.047364e-001
3.224383e+003,1.050234e-001
3.226311e+003,1.055255e-001
3.228240e+003,1.064008e-001
3.230168e+003,1.074116e-001
3.232097e+003,1.080407e-001
3.234025e+003,1.081325e-001
3.235954e+003,1.080020e-001
3.237882e+003,1.079831e-001
3.239811e+003,1.082407e-001
3.241739e+003,1.087866e-001
3.243667e+003,1.094062e-001
3.245596e+003,1.097947e-001
3.247524e+003,1.099467e-001
3.249453e+003,1.102357e-001
3.251381e+003,1.108578e-001
3.253310e+003,1.114166e-001
3.255238e+003,1.114948e-001
3.257167e+003,1.113023e-001
3.259095e+003,1.112461e-001
3.261024e+003,1.113993e-001
3.262952e+003,1.117172e-001
3.264881e+003,1.122775e-001
3.266809e+003,1.130334e-001
3.268738e+003,1.136397e-001
3.270666e+003,1.138509e-001
3.272594e+003,1.137881e-001
3.274523e+003,1.136457e-001
3.276451e+003,1.135457e-001
3.278380e+003,1.135999e-001
3.280308e+003,1.137828e-001
3.282237e+003,1.139205e-001
3.284165e+003,1.140227e-001
3.286094e+003,1.144286e-001
3.288022e+003,1.153090e-001
3.289950e+003,1.163068e-001
3.291879e+003,1.169713e-001
3.293807e+003,1.171715e-001
3.295736e+003,1.170930e-001
3.297664e+003,1.171789e-001
3.299593e+003,1.177872e-001
3.301521e+003,1.187589e-001
3.303450e+003,1.196215e-001
3.305378e+003,1.201279e-001
3.307307e+003,1.203587e-001
3.309235e+003,1.204713e-001
3.311164e+003,1.205557e-001
3.313092e+003,1.206609e-001
3.315021e+003,1.208617e-001
3.316949e+003,1.212640e-001
3.318877e+003,1.219830e-001
3.320806e+003,1.230097e-001
3.322734e+003,1.239481e-001
3.324663e+003,1.243370e-001
3.326591e+003,1.244303e-001
3.328520e+003,1.249420e-001
3.330448e+003,1.260620e-001
3.332377e+003,1.273919e-001
3.334305e+003,1.285226e-001
3.336234e+003,1.293477e-001
3.338162e+003,1.300530e-001
3.340090e+003,1.307672e-001
3.342019e+003,1.314164e-001
3.343947e+003,1.320875e-001
3.345876e+003,1.329649e-001
3.347804e+003,1.338744e-001
3.349733e+003,1.345463e-001
3.351661e+003,1.351092e-001
3.353590e+003,1.358610e-001
3.355518e+003,1.369131e-001
3.357447e+003,1.381481e-001
3.359375e+003,1.393549e-001
3.361303e+003,1.405736e-001
3.363232e+003,1.419787e-001
3.365160e+003,1.432937e-001
3.367089e+003,1.440000e-001
3.369017e+003,1.441384e-001
3.370946e+003,1.443182e-001
3.372874e+003,1.449871e-001
3.374803e+003,1.460311e-001
3.376731e+003,1.470039e-001
3.378660e+003,1.475329e-001
3.380588e+003,1.476616e-001
3.382517e+003,1.478826e-001
3.384445e+003,1.486567e-001
3.386374e+003,1.499552e-001
3.388302e+003,1.512672e-001
3.390230e+003,1.520638e-001
3.392159e+003,1.524461e-001
3.394087e+003,1.529983e-001
3.396016e+003,1.538324e-001
3.397944e+003,1.544628e-001
3.399873e+003,1.545760e-001
3.401801e+003,1.544162e-001
3.403729e+003,1.544445e-001
3.405658e+003,1.548119e-001
3.407586e+003,1.552967e-001
3.409515e+003,1.556335e-001
3.411443e+003,1.556835e-001
3.413372e+003,1.555204e-001
3.415300e+003,1.554477e-001
3.417229e+003,1.555915e-001
3.419157e+003,1.557176e-001
3.421086e+003,1.558151e-001
3.423014e+003,1.562276e-001
3.424943e+003,1.569583e-001
3.426871e+003,1.575986e-001
3.428800e+003,1.578972e-001
3.430728e+003,1.580006e-001
3.432656e+003,1.580598e-001
3.434585e+003,1.578588e-001
3.436513e+003,1.572452e-001
3.438442e+003,1.564540e-001
3.440370e+003,1.556965e-001
3.442299e+003,1.549855e-001
3.444227e+003,1.542239e-001
3.446156e+003,1.534252e-001
3.448084e+003,1.530035e-001
3.450013e+003,1.530779e-001
3.451941e+003,1.531349e-001
3.453870e+003,1.530095e-001
3.455798e+003,1.529341e-001
3.457726e+003,1.527100e-001
3.459655e+003,1.521556e-001
3.461583e+003,1.518000e-001
3.463512e+003,1.519660e-001
3.465440e+003,1.520229e-001
3.467369e+003,1.513063e-001
3.469297e+003,1.499785e-001
3.471226e+003,1.486866e-001
3.473154e+003,1.478961e-001
3.475083e+003,1.476434e-001
3.477011e+003,1.474180e-001
3.478939e+003,1.465667e-001
3.480868e+003,1.453416e-001
3.482796e+003,1.445688e-001
3.484725e+003,1.440669e-001
3.486653e+003,1.431887e-001
3.488582e+003,1.422107e-001
3.490510e+003,1.416899e-001
3.492439e+003,1.414231e-001
3.494367e+003,1.408487e-001
3.496296e+003,1.399086e-001
3.498224e+003,1.389152e-001
3.500153e+003,1.376071e-001
3.502081e+003,1.356445e-001
3.504010e+003,1.338390e-001
3.505938e+003,1.329003e-001
3.507866e+003,1.323737e-001
3.509795e+003,1.318386e-001
3.511723e+003,1.311936e-001
3.513652e+003,1.303023e-001
3.515580e+003,1.292972e-001
3.517509e+003,1.285220e-001
3.519437e+003,1.279222e-001
3.521365e+003,1.269314e-001
3.523294e+003,1.252784e-001
3.525222e+003,1.234268e-001
3.527151e+003,1.218687e-001
3.529079e+003,1.208526e-001
3.531008e+003,1.204114e-001
3.532936e+003,1.200291e-001
3.534865e+003,1.191526e-001
3.536793e+003,1.180726e-001
3.538722e+003,1.174162e-001
3.540650e+003,1.168836e-001
3.542579e+003,1.154779e-001
3.544507e+003,1.130024e-001
3.546436e+003,1.108251e-001
3.548364e+003,1.096020e-001
3.550292e+003,1.083559e-001
3.552221e+003,1.068909e-001
3.554149e+003,1.059667e-001
3.556078e+003,1.054682e-001
3.558006e+003,1.046728e-001
3.559935e+003,1.034301e-001
3.561863e+003,1.020194e-001
3.563792e+003,1.003397e-001
3.565720e+003,9.832178e-002
3.567649e+003,9.694970e-002
3.569577e+003,9.637894e-002
3.571506e+003,9.556580e-002
3.573434e+003,9.419832e-002
3.575362e+003,9.260586e-002
3.577291e+003,9.119739e-002
3.579219e+003,9.018778e-002
3.581148e+003,8.931074e-002
3.583076e+003,8.767165e-002
3.585005e+003,8.457894e-002
3.586933e+003,8.121596e-002
3.588862e+003,7.935894e-002
3.590790e+003,7.787296e-002
3.592719e+003,7.572527e-002
3.594647e+003,7.377672e-002
3.596575e+003,7.252068e-002
3.598504e+003,7.119085e-002
3.600432e+003,6.954093e-002
3.602361e+003,6.773585e-002
3.604289e+003,6.542804e-002
3.606218e+003,6.268203e-002
3.608146e+003,6.055434e-002
3.610075e+003,5.935796e-002
3.612003e+003,5.823636e-002
3.613932e+003,5.681142e-002
3.615860e+003,5.497360e-002
3.617789e+003,5.300360e-002
3.619717e+003,5.184612e-002
3.621646e+003,5.120081e-002
3.623574e+003,4.972058e-002
3.625502e+003,4.675503e-002
3.627431e+003,4.340247e-002
3.629359e+003,4.246881e-002
3.631288e+003,4.280986e-002
3.633216e+003,4.211087e-002
3.635145e+003,4.079258e-002
3.637073e+003,3.944271e-002
3.639001e+003,3.811932e-002
3.640930e+003,3.686170e-002
3.642858e+003,3.546938e-002
3.644787e+003,3.348956e-002
3.646715e+003,3.092323e-002
3.648644e+003,2.962386e-002
3.650572e+003,3.047523e-002
3.652501e+003,3.072526e-002
3.654429e+003,3.006644e-002
3.656358e+003,2.961870e-002
3.658286e+003,2.921600e-002
3.660215e+003,2.816000e-002
3.662143e+003,2.683622e-002
3.664072e+003,2.549291e-002
3.666000e+003,2.369390e-002
3.667928e+003,2.194158e-002
3.669857e+003,2.166193e-002
3.671785e+003,2.123131e-002
3.673714e+003,1.908708e-002
3.675642e+003,1.847221e-002
3.677571e+003,2.009638e-002
3.679499e+003,2.088966e-002
3.681428e+003,2.075570e-002
3.683356e+003,2.026504e-002
3.685285e+003,1.907659e-002
3.687213e+003,1.718068e-002
3.689141e+003,1.629256e-002
3.691070e+003,1.711777e-002
3.692998e+003,1.744618e-002
3.694927e+003,1.673467e-002
3.696855e+003,1.563720e-002
3.698784e+003,1.445213e-002
3.700712e+003,1.371890e-002
3.702641e+003,1.399831e-002
3.704569e+003,1.431472e-002
3.706498e+003,1.341104e-002
3.708426e+003,1.130010e-002
3.710354e+003,1.002228e-002
3.712283e+003,1.122161e-002
3.714211e+003,1.237215e-002
3.716140e+003,1.210137e-002
3.718068e+003,1.124988e-002
3.719997e+003,1.068574e-002
3.721925e+003,1.043860e-002
3.723854e+003,1.037934e-002
3.725782e+003,1.087444e-002
3.727711e+003,1.146477e-002
3.729639e+003,1.097247e-002
3.731568e+003,9.130740e-003
3.733496e+003,7.416842e-003
3.735425e+003,8.213378e-003
3.737353e+003,1.015487e-002
3.739281e+003,1.026587e-002
3.741210e+003,8.059675e-003
3.743138e+003,5.564954e-003
3.745067e+003,5.440290e-003
3.746995e+003,5.559778e-003
3.748924e+003,4.149623e-003
3.750852e+003,4.725222e-003
3.752781e+003,7.372261e-003
3.754709e+003,8.288960e-003
3.756637e+003,7.448014e-003
3.758566e+003,7.010521e-003
3.760494e+003,7.671864e-003
3.762423e+003,8.020346e-003
3.764351e+003,7.715739e-003
3.766280e+003,7.272877e-003
3.768208e+003,6.995848e-003
3.770137e+003,7.492167e-003
3.772065e+003,8.502921e-003
3.773994e+003,8.866041e-003
3.775922e+003,8.215407e-003
3.777851e+003,7.299793e-003
3.779779e+003,7.147755e-003
3.781708e+003,7.354068e-003
3.783636e+003,7.333165e-003
3.785564e+003,7.559284e-003
3.787493e+003,7.983511e-003
3.789421e+003,8.143143e-003
3.791350e+003,7.929779e-003
3.793278e+003,7.311947e-003
3.795207e+003,6.735727e-003
3.797135e+003,6.227124e-003
3.799064e+003,5.004763e-003
3.800992e+003,4.401015e-003
3.802921e+003,5.194304e-003
3.804849e+003,5.357236e-003
3.806777e+003,5.561927e-003
3.808706e+003,6.865615e-003
3.810634e+003,7.658254e-003
3.812563e+003,6.963003e-003
3.814491e+003,5.814524e-003
3.816420e+003,5.386417e-003
3.818348e+003,4.595886e-003
3.820277e+003,3.884468e-003
3.822205e+003,5.063642e-003
3.824134e+003,6.291551e-003
3.826062e+003,6.643265e-003
3.827990e+003,6.789932e-003
3.829919e+003,6.807805e-003
3.831847e+003,6.779982e-003
3.833776e+003,6.267525e-003
3.835704e+003,4.572657e-003
3.837633e+003,3.323638e-003
3.839561e+003,4.324320e-003
3.841490e+003,6.005622e-003
3.843418e+003,7.187760e-003
3.845347e+003,7.938755e-003
3.847275e+003,7.814631e-003
3.849204e+003,5.829145e-003
3.851132e+003,1.857792e-003
3.853061e+003,4.341374e-004
3.854989e+003,4.102185e-003
3.856917e+003,6.779963e-003
3.858846e+003,6.984402e-003
3.860774e+003,5.903135e-003
3.862703e+003,5.226709e-003
3.864631e+003,5.764452e-003
3.866560e+003,5.671550e-003
3.868488e+003,4.466033e-003
3.870417e+003,4.137395e-003
3.872345e+003,5.108631e-003
3.874273e+003,6.280216e-003
3.876202e+003,6.675764e-003
3.878130e+003,6.103425e-003
3.880059e+003,5.906993e-003
3.881987e+003,6.283858e-003
3.883916e+003,6.240045e-003
3.885844e+003,6.521071e-003
3.887773e+003,6.675391e-003
3.889701e+003,5.964014e-003
3.891630e+003,6.150257e-003
3.893558e+003,7.482580e-003
3.895487e+003,7.725043e-003
3.897415e+003,6.497893e-003
3.899344e+003,5.038063e-003
3.901272e+003,4.170881e-003
3.903200e+003,4.382979e-003
3.905129e+003,5.810981e-003
3.907057e+003,7.122880e-003
3.908986e+003,7.577315e-003
3.910914e+003,7.589980e-003
3.912843e+003,7.335945e-003
3.914771e+003,6.712647e-003
3.916700e+003,6.280808e-003
3.918628e+003,6.512842e-003
3.920556e+003,6.702468e-003
3.922485e+003,6.528036e-003
3.924413e+003,6.695470e-003
3.926342e+003,7.109828e-003
3.928270e+003,6.908936e-003
3.930199e+003,6.402337e-003
3.932127e+003,6.505894e-003
3.934056e+003,6.928927e-003
3.935984e+003,7.042093e-003
3.937913e+003,6.860412e-003
3.939841e+003,6.534453e-003
3.941770e+003,6.406047e-003
3.943698e+003,6.620231e-003
3.945626e+003,6.627084e-003
3.947555e+003,6.391684e-003
3.949483e+003,6.507508e-003
3.951412e+003,6.870267e-003
3.953340e+003,7.042160e-003
3.955269e+003,7.101248e-003
3.957197e+003,7.154465e-003
3.959126e+003,7.040290e-003
3.961054e+003,6.864057e-003
3.962983e+003,6.918933e-003
3.964911e+003,7.056205e-003
3.966840e+003,7.049152e-003
3.968768e+003,7.013490e-003
3.970697e+003,7.049554e-003
3.972625e+003,7.096544e-003
3.974553e+003,7.079909e-003
3.976482e+003,6.988294e-003
3.978410e+003,6.962166e-003
3.980339e+003,7.106589e-003
3.982267e+003,7.269934e-003
3.984196e+003,7.296076e-003
3.986124e+003,7.245242e-003
3.988052e+003,7.265584e-003
3.989981e+003,7.419671e-003
3.991909e+003,7.547532e-003
3.993838e+003,7.483165e-003
3.995766e+003,7.345913e-003
3.997695e+003,7.281997e-003
3.999623e+003,7.277922e-003
4.001552e+003,7.342824e-003
